#SysTm EventTmStmp Pressure
190166905501573 1379439889403228783 994.60333 
190166945513780 1379439889657470726 994.1236 
190167008935114 1379439889720642113 994.0337 
190167070555745 1379439889784698509 994.57336 
190167130467237 1379439889848016387 994.81323 
190167194682100 1379439889911981231 994.5134 
190167259629452 1379439889975122100 994.5434 
190167325461896 1379439890039117461 994.5134 
190167388700106 1379439890102288848 994.4834 
190167452823410 1379439890166223174 994.5134 
190167515573295 1379439890229394561 994.4834 
190167575942591 1379439890293298369 994.42346 
190167638600916 1379439890355432158 994.57336 
190167708187365 1379439890420556670 994.6333 
190167769228110 1379439890483697539 994.57336 
190167864482192 1379439890547631865 994.60333 
190167893293423 1379439890610816912 994.57336 
190167962635709 1379439890674781756 994.57336 
190168021082223 1379439890737983660 994.57336 
190168086090616 1379439890801917986 994.57336 
190168147589166 1379439890865119891 994.6333 
190168211590386 1379439890929084734 994.60333 
190168274737037 1379439890992256121 994.6933 
190168338799299 1379439891056251482 994.60333 
190168402953121 1379439891119361834 994.6633 
190168465977690 1379439891183357195 994.57336 
190168529063299 1379439891246528582 994.7533 
190168592972959 1379439891310462908 994.6333 
190168656241692 1379439891373664812 994.57336 
190168720151351 1379439891437599139 994.5134 
190168783786327 1379439891500770525 994.78326 
190168846871936 1379439891564369158 994.60333 
190168910323790 1379439891627876238 994.6633 
190168974691257 1379439891691902117 994.57336 
190169038234671 1379439891755012469 994.6633 
190169102144331 1379439891819007830 994.5434 
190169165290981 1379439891882209734 994.6333 
190169228803877 1379439891946205096 994.60333 
190169291950526 1379439892009345965 994.60333 
190169355951748 1379439892073310809 994.6333 
190169419281520 1379439892136451678 994.57336 
190169483099619 1379439892200447039 994.6333 
190169546704074 1379439892263769747 994.60333 
190169610278011 1379439892327795625 994.57336 
190169673302579 1379439892390905977 994.57336 
190169739318144 1379439892454931856 994.57336 
190169801030339 1379439892518103243 994.57336 
190169864360110 1379439892582037569 994.60333 
190169927537281 1379439892645208956 994.6633 
190169991507981 1379439892709173799 994.6933 
190170054898794 1379439892772467256 994.60333 
190170119205220 1379439892836340547 994.5434 
190170283099618 1379439892899481416 994.57336 
190170315939539 1379439893026648165 994.57336 
190170372982115 1379439893090536102 994.6333 
190170436189807 1379439893153707489 994.60333 
190170500740394 1379439893217702850 994.60333 
190170565992949 1379439893280935272 994.5434 
190170629078560 1379439893344839081 994.72327 
190170692011567 1379439893408010467 994.60333 
190170755585503 1379439893472066864 994.57336 
190170819403601 1379439893535299286 994.5434 
190170881695681 1379439893599142059 994.4734 
190170947894370 1379439893662282928 994.5034 
190171008813033 1379439893726247772 994.57336 
190171071990203 1379439893789419159 994.57336 
190171135991424 1379439893853414520 994.41345 
190171199351716 1379439893916585907 994.60333 
190171262986694 1379439893980520233 994.60333 
190171326163864 1379439894043691620 994.57336 
190171390165084 1379439894107625946 994.5334 
190171453677979 1379439894171194061 994.4734 
190171517282435 1379439894234792694 994.60333 
190171580459607 1379439894297964081 994.5034 
190171644430307 1379439894361898407 994.5334 
190171707729558 1379439894425100311 994.60333 
190171772066503 1379439894489095672 994.57336 
190171834877431 1379439894552267059 994.6333 
190171900374150 1379439894616231903 994.6333 
190171988394903 1379439894680623993 994.60333 
190172041012024 1379439894743606444 994.60333 
190172102449535 1379439894807144042 994.60333 
190172169289149 1379439894871200439 994.56335 
190172240523699 1379439894934341308 994.60333 
190172305806775 1379439894998367187 994.6333 
190172371578179 1379439895061508056 994.4734 
190172435304715 1379439895125472899 994.41345 
190172504585962 1379439895188400146 994.5934 
190172557844011 1379439895252151366 994.5334 
190172628010346 1379439895315353271 994.4734 
190172664054906 1379439895379897948 994.5934 
190172726591148 1379439895442397948 994.5034 
190172790348206 1379439895506315156 994.5334 
190172867229025 1379439895569456026 994.6333 
190172920822798 1379439895633603975 994.5934 
190173011071540 1379439895696714326 994.56335 
190173043301053 1379439895760679170 994.5934 
190173121128003 1379439895823789522 994.5034 
190173185281825 1379439895887754365 994.5034 
190173270281062 1379439895950956270 994.4434 
190173315939539 1379439896014921113 994.4734 
190173381344697 1379439896078092500 994.56335 
190173448825240 1379439896142026826 994.6933 
190173488166001 1379439896205198213 994.56335 
190173561170730 1379439896269132539 994.4734 
190173614795026 1379439896332303926 994.3535 
190173678735205 1379439896396299287 994.3835 
190173742003938 1379439896459531709 994.5934 
190173806066199 1379439896523466035 994.4734 
190173870220021 1379439896586728975 994.6533 
190173934892690 1379439896650632783 994.5934 
190173999351716 1379439896713804170 994.5934 
190174062589928 1379439896777769014 994.5934 
190174131779612 1379439896840970918 994.62335 
190174187876056 1379439896904905244 994.4734 
190174250686983 1379439896968046113 994.5334 
190174314688203 1379439897032041475 994.5334 
190174378842027 1379439897095182344 994.5934 
190174441958156 1379439897159418026 994.56335 
190174506508743 1379439897222619930 994.5334 
190174568983945 1379439897286584774 994.62335 
190174632313719 1379439897349725643 994.56335 
190174696040256 1379439897413659969 994.4734 
190174759705754 1379439897476861873 994.5334 
190174823615413 1379439897540826717 994.56335 
190174886395818 1379439897603998104 994.62335 
190174950397040 1379439897667962948 994.5334 
190175013574210 1379439897731134334 994.56335 
190175078430001 1379439897795099178 994.62335 
190175140996765 1379439897858240047 994.56335 
190175204662260 1379439897922235409 994.6833 
190175267900473 1379439897985449617 994.5934 
190175332237417 1379439898049414461 994.56335 
190175394926263 1379439898112494295 994.5934 
190175458988524 1379439898176520173 994.62335 
190175522501420 1379439898239691560 994.5034 
190175586166916 1379439898303686921 994.5934 
190175649496688 1379439898366858308 994.5934 
190175726011261 1379439898431006257 994.56335 
190175793247642 1379439898494543855 994.5934 
190175862254205 1379439898558539216 994.5334 
190175936235586 1379439898621588533 994.5934 
190175967671569 1379439898685309236 994.62335 
190176031398108 1379439898748175447 994.5934 
190176099214374 1379439898812201326 994.5934 
190176161872699 1379439898875372713 994.4734 
190176226179123 1379439898939307039 994.6533 
190176288684846 1379439899002478425 994.6533 
190176348840500 1379439899066443269 994.5334 
190176412200793 1379439899129584138 994.5934 
190176476171494 1379439899193640535 994.62335 
190176540325316 1379439899256811921 994.5334 
190176603960293 1379439899321142976 994.5334 
190176666862779 1379439899383978670 994.5334 
190176730467235 1379439899447882478 994.5934 
190176794926263 1379439899510992830 994.62335 
190176858103433 1379439899575077545 994.62335 
190176924912528 1379439899638279449 994.5934 
190176989279993 1379439899702213775 994.62335 
190177051541552 1379439899765385162 994.5934 
190177113619991 1379439899829350006 994.6533 
190177178536822 1379439899892521392 994.6533 
190177279956019 1379439899956516754 994.6833 
190177312948542 1379439900019657623 994.56335 
190177366084511 1379439900083622466 994.5334 
190177429383762 1379439900146793853 994.56335 
190177493384983 1379439900210758697 994.62335 
190177556501113 1379439900273899566 994.56335 
190177620624416 1379439900337894927 994.5934 
190177684167831 1379439900401066314 994.56335 
190177747650205 1379439900465031158 994.6533 
190177811926109 1379439900529301177 994.56335 
190177875377963 1379439900592197906 994.5034 
190177938005768 1379439900655369293 994.56335 
190178001976468 1379439900719151031 994.5034 
190178069823256 1379439900782413970 994.62335 
190178134495924 1379439900846500884 994.56335 
190178203044681 1379439900909550201 994.5934 
190178267900473 1379439900973484527 994.56335 
190178335045291 1379439901036686431 994.56335 
190178403014161 1379439901100651275 994.56335 
190178469884297 1379439901163792144 994.5334 
190178535411535 1379439901227818023 994.6833 
190178575484786 1379439901290958892 994.6533 
190178668175155 1379439901354954254 994.5334 
190178716366824 1379439901418217193 994.6533 
190178764680572 1379439901482121002 994.2335 
190178827949304 1379439901545261871 994.5334 
190178891981047 1379439901609257232 994.26355 
190178982229787 1379439901672428619 994.62335 
190179019617243 1379439901736454498 994.6833 
190179084076270 1379439901799564849 994.56335 
190179156684235 1379439901863560211 994.5934 
190179210674775 1379439901926701080 994.62335 
190179273394139 1379439901990665924 994.56335 
190179336998595 1379439902053837310 994.6533 
190179400969296 1379439902117802154 994.6533 
190179463963343 1379439902180973541 994.5934 
190179527750923 1379439902244968902 994.5934 
190179592026826 1379439902308140289 994.5934 
190179654837753 1379439902372074615 994.56335 
190179718411688 1379439902435215484 994.56335 
190179782351868 1379439902499271881 994.6533 
190179845651121 1379439902562412750 994.62335 
190179909133495 1379439902626347076 994.5034 
190179972371707 1379439902689548980 994.6533 
190180036281366 1379439902753483306 994.62335 
190180099489057 1379439902817012534 994.62335 
190180164772133 1379439902881007895 994.5934 
190180226820052 1379439902944148765 994.5334 
190180290577109 1379439903008113608 994.5934 
190180353754279 1379439903071284995 994.5934 
190180418274346 1379439903135249839 994.6833 
190180480932670 1379439903198421225 994.56335 
190180544933893 1379439903262416587 994.56335 
190180608080543 1379439903325557456 994.5934 
190180672020722 1379439903389522300 994.56335 
190180735228413 1379439903452693686 994.71326 
190180799199113 1379439903516658530 994.5934 
190180862406806 1379439903579860434 994.5934 
190180926774271 1379439903644038901 994.62335 
190180990439767 1379439903706966147 994.56335 
190181053952662 1379439903770900473 994.56335 
190181116733067 1379439903834102378 994.56335 
190181180978453 1379439903898067222 994.5934 
190181245193315 1379439903961238608 994.4734 
190181307790598 1379439904025233970 994.62335 
190181371303493 1379439904088405356 994.56335 
190181434999510 1379439904152431235 994.5934 
190181499641659 1379439904215541587 994.62335 
190181562299983 1379439904279475913 994.5334 
190181626362245 1379439904342647300 994.5934 
190181689264732 1379439904406642661 994.5934 
190181752472424 1379439904469995897 994.62335 
190181816382083 1379439904533930223 994.56335 
190181882733374 1379439904597071092 994.56335 
190181948962581 1379439904661066453 994.62335 
190182014520340 1379439904724268358 994.5334 
190182075744207 1379439904788233201 994.6533 
190182183359040 1379439904851404588 994.5334 
190182197917257 1379439904915369432 994.5934 
190182261979520 1379439904978510301 994.6533 
190182326682708 1379439905042505662 994.5034 
190182388150739 1379439905105677049 994.56335 
190182452121439 1379439905169611375 994.62335 
190182515298611 1379439905232782762 994.6833 
190182579879718 1379439905296762265 994.5334 
190182642690644 1379439905359994687 994.62335 
190182706844466 1379439905423929013 994.6533 
190182769594353 1379439905487069882 994.5934 
190182834633266 1379439905551065243 994.5034 
190182896772745 1379439905614206112 994.5334 
190182961079169 1379439905678170956 994.5934 
190183025446633 1379439905741372860 994.62335 
190183087891316 1379439905805337704 994.5334 
190183151037966 1379439905868478573 994.62335 
190183215008666 1379439905932443417 994.56335 
190183280963191 1379439905995614804 994.56335 
190183342431220 1379439906059640683 994.5034 
190183407317533 1379439906122751034 994.4734 
190183469334929 1379439906186746396 994.5334 
190183532451060 1379439906249887265 994.62335 
190183596452280 1379439906313852108 994.56335 
190183659934655 1379439906377054013 994.56335 
190183723966396 1379439906441018856 994.5034 
190183786990964 1379439906504190243 994.5334 
190183851633113 1379439906568124569 994.5334 
190183913894673 1379439906631295956 994.56335 
190183977987454 1379439906695291317 994.4734 
190184042232839 1379439906758462704 994.5034 
190184121707889 1379439906822427548 994.4734 
190184191874224 1379439906886209286 994.4734 
190184232039034 1379439906949740843 994.56335 
190184295155165 1379439907012881712 994.5034 
190184357508285 1379439907074984983 994.56335 
190184422516677 1379439907140048460 994.5934 
190184516763588 1379439907204837278 994.62335 
190184586777321 1379439907267825560 994.5934 
190184613909934 1379439907331607298 994.62335 
190184676629299 1379439907394290403 994.56335 
190184740600000 1379439907458255247 994.56335 
190184811407265 1379439907521457151 994.56335 
190184893232383 1379439907585513548 994.62335 
190184930925042 1379439907648562864 994.56335 
190184994987303 1379439907712632854 994.6533 
190185058317075 1379439907775712688 994.6533 
190185131382846 1379439907839708049 994.6833 
190185203441445 1379439907902909953 994.6533 
190185281665161 1379439907967424114 994.71326 
190185345880023 1379439908030564983 994.62335 
190185376736119 1379439908094346721 994.56335 
190185439852250 1379439908157212932 994.62335 
190185503548267 1379439908221116740 994.56335 
190185565535142 1379439908283006389 994.6533 
190185630635097 1379439908348222453 994.56335 
190185693842788 1379439908411393840 994.6533 
190185758607017 1379439908475389201 994.6533 
190185821326384 1379439908538560588 994.5934 
190185885205522 1379439908602525432 994.62335 
190185948413213 1379439908665696819 994.62335 
190186012292353 1379439908729692180 994.5934 
190186075408483 1379439908792833049 994.56335 
190186139409704 1379439908856797893 994.5934 
190186202556355 1379439908919969280 994.5934 
190186267717349 1379439908983934123 994.5334 
190186329765266 1379439909047136028 994.5934 
190186393644406 1379439909111039836 994.5934 
190186459171645 1379439909174241740 994.5934 
190186520822797 1379439909238206584 994.62335 
190186589463114 1379439909301347453 994.62335 
190186651144787 1379439909365646747 994.5934 
190186711025758 1379439909428757099 994.56335 
190186774386050 1379439909492172626 994.62335 
190186880810588 1379439909555832294 994.62335 
190186902998899 1379439909619827655 994.5334 
190186966084509 1379439909682999042 994.56335 
190187029475323 1379439909747055439 994.5934 
190187092591452 1379439909810196308 994.56335 
190187156592673 1379439909874191669 994.6533 
190187220166609 1379439909937363056 994.62335 
190187283801585 1379439910001327900 994.5034 
190187346917716 1379439910064499286 994.6833 
190187411956629 1379439910128433613 994.62335 
190187473974025 1379439910191619584 994.6533 
190187541637691 1379439910255675981 994.6833 
190187601396579 1379439910318816850 994.62335 
190187665306240 1379439910382812211 994.6533 
190187728361329 1379439910445983598 994.5334 
190187800450448 1379439910509887406 994.6533 
190187855387119 1379439910573089311 994.62335 
190187919327298 1379439910637023637 994.62335 
190187982534990 1379439910700225541 994.62335 
190188046475169 1379439910764159867 994.56335 
190188109804942 1379439910827361772 994.6533 
