#SysTm EventTmStmp Pressure
183322732015806 1375059313061218646 889.3412 
183322743827190 1375059313124390033 889.3412 
183322756004819 1375059313188293842 889.3112 
183322768365569 1375059313251709369 889.4012 
183322805966668 1375059313315399554 889.3412 
183322830047242 1375059313378723529 889.29126 
183322884190382 1375059313442535785 889.3712 
183322949015653 1375059313506134418 889.4012 
183323019700836 1375059313569702533 889.3412 
183323075431036 1375059313632934955 889.28125 
183323137997800 1375059313696853442 889.3112 
183323204684813 1375059313760116382 889.3712 
183323274057619 1375059313823989673 889.3712 
183323346055178 1375059313887283130 889.3412 
183323389760350 1375059313951125903 889.3412 
183323455806436 1375059314014419360 889.1913 
183323518800485 1375059314078231616 889.3412 
183323582496501 1375059314141555591 889.3112 
183323645673673 1375059314205367847 889.28125 
183323706989100 1375059314268691821 889.3412 
183323771417607 1375059314332534595 889.3112 
183323834106451 1375059314395767017 889.3112 
183323897894030 1375059314459640308 889.3412 
183323961681607 1375059314522994800 889.28125 
183324025255543 1375059314586776538 889.3412 
183324091240588 1375059314650069995 889.3712 
183324152739140 1375059314714248462 889.43115 
183324216435156 1375059314777236743 889.4012 
183324279490245 1375059314841048999 889.3412 
183324342820018 1375059314904372974 889.3412 
183324406638116 1375059314968185230 889.3112 
183324470669858 1375059315031478687 889.3112 
183324534182752 1375059315095351978 889.3112 
183324596871597 1375059315158645435 889.3112 
183324661361143 1375059315222457691 889.3112 
183324731313837 1375059315285751148 889.3012 
183324788875260 1375059315349712196 889.3412 
183324851197860 1375059315412944618 889.3312 
183324914985439 1375059315476756874 889.3312 
183324978284691 1375059315540111366 889.3012 
183325046131477 1375059315603893104 889.3012 
183325105066317 1375059315667186561 889.27124 
183325169067539 1375059315731120888 889.3312 
183325232366790 1375059315794322792 889.3612 
183325296093328 1375059315858196083 889.42114 
183325359697783 1375059315921825233 889.3312 
183325426232196 1375059315985332313 889.3312 
183325494689390 1375059316048625770 889.3912 
183325566412265 1375059316111064735 889.42114 
183325630993373 1375059316175792518 889.27124 
183325679215561 1375059316239604774 889.42114 
183325747001309 1375059316303142372 889.42114 
183325809995357 1375059316366802040 889.3312 
183325880741580 1375059316430095497 889.3612 
183325935861373 1375059316493907753 889.3312 
183325995223496 1375059316557201210 889.48114 
183326061666348 1375059316620982948 889.3912 
183326138638727 1375059316684306923 889.3612 
183326187440802 1375059316748180214 889.3312 
183326255196028 1375059316811473671 889.27124 
183326335342527 1375059316875285927 889.3912 
183326379932790 1375059316938609901 889.3312 
183326441095617 1375059317002422157 889.3912 
183326520479104 1375059317065807167 889.3612 
183326573004666 1375059317129588905 889.3912 
183326633190840 1375059317192882362 889.3612 
183326702807809 1375059317256816688 889.42114 
183326767999325 1375059317319347206 889.3312 
183326822020383 1375059317383830848 889.3312 
183326885197555 1375059317447093788 889.3612 
183326950419590 1375059317511150184 889.3312 
183327012620109 1375059317574291054 889.3012 
183327076163524 1375059317638103309 889.3612 
183327139432255 1375059317701396766 889.3612 
183327204013364 1375059317765270057 889.3912 
183327268563951 1375059317828532997 889.3312 
183327341477121 1375059317892375770 889.3312 
183327406180310 1375059317955730263 889.3312 
183327471402346 1375059318019695106 889.42114 
183327557134072 1375059318082805458 889.3012 
183327584755009 1375059318146678749 889.29126 
183327648725709 1375059318209911171 889.3612 
183327721364195 1375059318273784462 889.3612 
183327785456978 1375059318337077919 889.3312 
183327839081272 1375059318400920692 889.3312 
183327902380523 1375059318464183632 889.38116 
183327966290183 1375059318528472541 889.38116 
183328042072268 1375059318591735481 889.2413 
183328101678556 1375059318655608772 889.3212 
183328157836041 1375059318719970344 889.3212 
183328224950340 1375059318782867073 889.3212 
183328290752262 1375059318846313117 889.3012 
183328352189771 1375059318909850715 889.3212 
183328425774390 1375059318973205207 889.3312 
183328474881669 1375059319036986946 889.38116 
183328538364043 1375059319100371955 889.29126 
183328602060059 1375059319164184211 889.3012 
183328673172527 1375059319228576301 889.3212 
183328732351530 1375059319291289924 889.2612 
183328799465828 1375059319354552864 889.3512 
183328861330622 1375059319418426155 889.29126 
183328935403567 1375059319481689094 889.29126 
183328983503673 1375059319545562385 889.3212 
183329049946524 1375059319608825324 889.3512 
183329110773626 1375059319672637580 889.29126 
183329174439122 1375059319735931037 889.41113 
183329239294915 1375059319799834846 889.3512 
183329313886704 1375059319863067268 889.38116 
183329372638420 1375059319928191780 889.3212 
183329431298577 1375059319990203498 889.29126 
183329497436224 1375059320054412483 889.3512 
183329556767827 1375059320117461799 889.3512 
183329621989862 1375059320181300802 889.29126 
183329683244250 1375059320244563742 889.3512 
183329755455453 1375059320308437033 889.3512 
183329822142466 1375059320371699972 889.38116 
183329877353818 1375059320436244650 889.3212 
183329942667414 1375059320498866720 889.29126 
183330002884109 1375059320562709494 889.38116 
183330071768592 1375059320626033468 889.29126 
183330145200607 1375059320689876242 889.3212 
183330191286368 1375059320753108664 889.3512 
183330255531751 1375059320816981955 889.3512 
183330318678402 1375059320880244894 889.29126 
183330388509016 1375059320944087668 889.3212 
183330454158336 1375059321007411642 889.38116 
183330509827494 1375059321071254416 889.3212 
183330572546859 1375059321134486838 889.29126 
183330640729372 1375059321198390646 889.2612 
183330708820322 1375059321261958761 889.3212 
183330763665431 1375059321325496359 889.41113 
183330832977198 1375059321388820334 889.29126 
183330904974755 1375059321452632589 889.29126 
183330954143076 1375059321515926047 889.3212 
183331027605612 1375059321579799338 889.38116 
183331110437903 1375059321643031759 889.41113 
183331145170086 1375059321706874533 889.38116 
183331208560899 1375059321770229025 889.2612 
183331272287436 1375059321834041281 889.38116 
183331340195265 1375059321897304220 889.41113 
183331408591419 1375059321961208029 889.3512 
183331464443701 1375059322024501486 889.3512 
183331526766301 1375059322088313742 889.2013 
183331589973993 1375059322151576681 889.29126 
183331665389832 1375059322215480490 889.3512 
183331723073336 1375059322278712912 889.3212 
183331780817881 1375059322342616720 889.38116 
183331851991388 1375059322405910177 889.29126 
183331917518628 1375059322470027609 889.3512 
183331979566545 1375059322533015890 889.3212 
183332044300255 1375059322596889181 889.41113 
183332106622855 1375059322660121603 889.3212 
183332170166271 1375059322724025412 889.3512 
183332233831767 1375059322787318869 889.3512 
183332297314142 1375059322851100607 889.44116 
183332361193281 1375059322914363547 889.2612 
183332424339932 1375059322978297873 889.38116 
183332487913866 1375059323041682882 889.3212 
183332553776830 1375059323105403586 889.3512 
183332613657802 1375059323168727560 889.3512 
183332674912188 1375059323232539816 889.3512 
183332746696105 1375059323295833273 889.3512 
183332806638116 1375059323360030704 889.41113 
183332863222885 1375059323423293644 889.3212 
183332927285148 1375059323487136417 889.38116 
183332988570055 1375059323550429874 889.3512 
183333059652002 1375059323614455753 889.3512 
183333118678401 1375059323677566104 889.3512 
183333179322381 1375059323741378360 889.3212 
183333254646661 1375059323804702335 889.29126 
183333311994440 1375059323868728214 889.3212 
183333370807199 1375059323931869083 889.38116 
183333475980401 1375059323995711856 889.3512 
183333544803842 1375059324059005313 889.2612 
183333625560746 1375059324122787052 889.2612 
183333660262410 1375059324186111026 889.38116 
183333724690915 1375059324249984317 889.3512 
183333791500010 1375059324313216739 889.3512 
183333825377623 1375059324377120548 889.2612 
183333878330470 1375059324440414005 889.38116 
183333944620718 1375059324504256778 889.29126 
183334006027708 1375059324567550235 889.38116 
183334070975060 1375059324631393009 889.41113 
183334147550675 1375059324694625431 889.3212 
183334197756687 1375059324758590274 889.3212 
183334268594470 1375059324821792179 889.3212 
183334338303001 1375059324885665470 889.3512 
183334419243028 1375059324948958927 889.3712 
183334450740053 1375059325013074953 889.3212 
183334513947745 1375059325074934084 889.3512 
183334577918444 1375059325140180666 889.3512 
183334641797584 1375059325203504641 889.38116 
183334707874191 1375059325267377932 889.3512 
183334769830546 1375059325330732424 889.38116 
183334834625297 1375059325394605715 889.41113 
183334903418216 1375059325457777102 889.3512 
183334961071199 1375059325521711428 889.3112 
183335023515882 1375059325584913332 889.41113 
183335087700224 1375059325648725588 889.38116 
183335150389069 1375059325711988527 889.38116 
183335213718842 1375059325775892336 889.38116 
183335276926532 1375059325839139361 889.3212 
183335340714111 1375059325902982135 889.3512 
183335404623770 1375059325966306110 889.3412 
183335473996577 1375059326030148883 889.38116 
183335540683590 1375059326093411822 889.43115 
183335597817727 1375059326157285113 889.3712 
183335658950034 1375059326220548053 889.3712 
183335721974602 1375059326283658404 889.3712 
183335786860913 1375059326347684283 889.3712 
183335850282247 1375059326411557574 889.3412 
183335915870527 1375059326476498981 889.3712 
183335977735323 1375059326538663287 889.3412 
183336046436680 1375059326601987262 889.3712 
183336104150704 1375059326665799518 889.3412 
183336169006496 1375059326729092975 889.43115 
183336231664820 1375059326792966266 889.4611 
183336299725251 1375059326856259723 889.4012 
183336358415926 1375059326920071979 889.43115 
183336421837260 1375059326983853717 889.43115 
183336491942555 1375059327047238727 889.4611 
183336549839702 1375059327110501666 889.3712 
183336612833751 1375059327174344440 889.4611 
183336678605153 1375059327237668414 889.3112 
183336739920580 1375059327301480670 889.3912 
183336806210829 1375059327364804645 889.3712 
183336972760501 1375059327428647418 889.3912 
183336978498331 1375059327492122790 889.4012 
183337025102940 1375059327556026599 889.3912 
183337147825357 1375059327619320056 889.3912 
183337157347713 1375059327685543200 889.4512 
183337248389984 1375059327746456286 889.4012 
183337338364042 1375059327812343737 889.3612 
183337379963309 1375059327873500964 889.3612 
183337387013515 1375059327935451647 889.3912 
183337439905321 1375059328000942370 889.42114 
183337503418215 1375059328064602038 889.3912 
183337566870069 1375059328127803942 889.4512 
183337631176494 1375059328192226550 889.3912 
183337694292623 1375059328254909655 889.42114 
183337761040679 1375059328318185180 889.48114 
183337821623617 1375059328382119506 889.3612 
183337884617666 1375059328445992797 889.3312 
183337968212966 1375059328509713500 889.3912 
183338046863966 1375059328574471801 889.38116 
183338098107671 1375059328635110228 889.3612 
183338172699461 1375059328700234740 889.38116 
183338226659478 1375059328763528197 889.3612 
183338309827495 1375059328827401488 889.3912 
183338341324519 1375059328890664428 889.5011 
183338396566392 1375059328954873412 889.4711 
183338462093631 1375059329018105834 889.41113 
183338526033813 1375059329081704467 889.3312 
183338587257679 1375059329143716185 889.3212 
183338707843668 1375059329208810180 889.3512 
183338719990776 1375059329272042601 889.3512 
183338781092562 1375059329335946410 889.41113 
183338847199691 1375059329400704711 889.44116 
183338928719604 1375059329463204711 889.41113 
183338982465979 1375059329526406615 889.41113 
183339030688168 1375059329590218871 889.41113 
183339092949727 1375059329653512328 889.44116 
183339157652918 1375059329718209594 889.41113 
183339220189160 1375059329781380980 889.41113 
183339283793616 1375059329844643920 889.41113 
183339346879225 1375059329908023861 889.38116 
183339410666803 1375059329969974544 889.43115 
183339474210220 1375059330035038021 889.3512 
183339539615377 1375059330100864437 889.43115 
183339601785375 1375059330162204769 889.3712 
183339665664514 1375059330226352718 889.3712 
183339730367704 1375059330289310482 889.3712 
183339792507182 1375059330352634456 889.4911 
183339856844126 1375059330416477230 889.3712 
183339925087679 1375059330480320003 889.3712 
183339983442631 1375059330544223812 889.4012 
183340055043426 1375059330609287288 889.3712 
183340115076997 1375059330670719173 889.3412 
183340173645592 1375059330734696625 889.3712 
183340236731202 1375059330797959564 889.3112 
183340321516795 1375059330861832855 889.4611 
183340375385253 1375059330925095795 889.3712 
183340436548080 1375059330989213226 889.3712 
183340494658868 1375059331052232025 889.42114 
183340554875563 1375059331116105316 889.4012 
183340617106603 1375059331178208588 889.3712 
183340682939045 1375059331243211029 889.3912 
183340745353208 1375059331306504486 889.3912 
183340809476509 1375059331370347259 889.3912 
183340881565629 1375059331434800384 889.3912 
183340941538159 1375059331497636078 889.42114 
183340999465826 1375059331560746429 889.3312 
183341063985895 1375059331624619720 889.3912 
183341127224105 1375059331687913177 889.4512 
183341193819559 1375059331752732513 889.3012 
183341259377318 1375059331815354584 889.5111 
183341317884871 1375059331878922699 889.4512 
183341385640099 1375059331942216156 889.4512 
183341443689846 1375059332004349945 889.3512 
183341508820321 1375059332069291351 889.42114 
183341574225479 1375059332133195160 889.3912 
183341638867627 1375059332196458099 889.3612 
183341699420047 1375059332260636566 889.3512 
183341763787511 1375059332323711308 889.29126 
183341826506878 1375059332387157353 889.3212 
183341889531446 1375059332449504765 889.3512 
183341952830698 1375059332514812382 889.3512 
183342019700834 1375059332578044804 889.3512 
183342080924700 1375059332642223271 889.41113 
183342143003138 1375059332705181035 889.3512 
183342206790716 1375059332769023808 889.38116 
183342275553114 1375059332832317265 889.41113 
183342344407075 1375059332896190556 889.3512 
183342397237839 1375059332959392461 889.3512 
183342461178020 1375059333023387822 889.41113 
183342525820168 1375059333086589726 889.4012 
183342592690305 1375059333150508179 889.28125 
183342661269581 1375059333213771118 889.3512 
183342715504282 1375059333277674927 889.4012 
183342778895095 1375059333340907349 889.3412 
183342843445683 1375059333404780640 889.4012 
183342914313989 1375059333468196167 889.3712 
183342977124914 1375059333531947388 889.3112 
183343035052581 1375059333595210327 889.4012 
183343097100498 1375059333659083618 889.3712 
183343160247148 1375059333722346558 889.4911 
183343232488869 1375059333786189331 889.3712 
183343289897690 1375059333849818481 889.4012 
183343351762485 1375059333913447632 889.3912 
183343414451329 1375059333976619018 889.3712 
183343476773930 1375059334038935913 889.4012 
183343546665582 1375059334103785767 889.3012 
183343605600422 1375059334167628540 889.3912 
183343685136512 1375059334230983032 889.3912 
183343732900895 1375059334294764770 889.42114 
183343807279042 1375059334357997192 889.4512 
183343871158181 1375059334421901001 889.3612 
183343925179240 1375059334485286011 889.3612 
183343987288198 1375059334549006714 889.42114 
183344050312766 1375059334612239136 889.3312 
183344114222427 1375059334676203979 889.3012 
183344177674280 1375059334739405884 889.3612 
183344243903488 1375059334803397463 889.3312 
183344304608509 1375059334866721437 889.3012 
183344381764011 1375059334930533693 889.3912 
183344432031064 1375059334993827150 889.3612 
183344495421877 1375059335057700441 889.3012 
183344558690609 1375059335120963381 889.41113 
183344622722350 1375059335184806154 889.41113 
183344685044950 1375059335247184084 889.41113 
183344752433933 1375059335311942385 889.3512 
183344813169474 1375059335375266359 889.41113 
183344879093477 1375059335439139650 889.3312 
183344940408906 1375059335502341555 889.3512 
183345005478341 1375059335566184328 889.3512 
183345073111485 1375059335629551084 889.38116 
183345131191754 1375059335693424375 889.3512 
183345194429964 1375059335756687314 889.38116 
183345258370145 1375059335820560605 889.3212 
183345321760959 1375059335883854062 889.3512 
183345386799872 1375059335947666318 889.3512 
183345448695187 1375059336010959775 889.41113 
183345535861370 1375059336074863584 889.3712 
183345597665124 1375059336138126523 889.3512 
183345664413179 1375059336201938779 889.4012 
183345733145057 1375059336265262754 889.4012 
183345800534039 1375059336329105527 889.3712 
183345867221054 1375059336392368467 889.3712 
183345935830850 1375059336456089170 889.4012 
183346005905625 1375059336519535215 889.43115 
183346076316124 1375059336583408506 889.43115 
183346140286824 1375059336647159727 889.3112 
183346202975669 1375059336710514219 889.3412 
183346241706021 1375059336774112852 889.4911 
183346304211744 1375059336837619932 889.43115 
183346376728149 1375059336900943906 889.43115 
183346421715177 1375059336964756162 889.3412 
183346477170695 1375059337028049619 889.43115 
183346563818031 1375059337091983945 889.3712 
183346607065399 1375059337156192930 889.43115 
183346668655510 1375059337219209570 889.43115 
183346741721281 1375059337282503027 889.3412 
183346795223495 1375059337346376318 889.42114 
183346936654900 1375059337409608740 889.3912 
183346943766146 1375059337473512548 889.3612 
183347022111942 1375059337536744970 889.3612 
183347066091798 1375059337600618261 889.3912 
183347128017635 1375059337664735693 889.48114 
183347207401122 1375059337727693456 889.3612 
183347253425844 1375059337791017431 889.42114 
183347295452396 1375059337856538671 889.4512 
183347358446445 1375059337918428320 889.3612 
183347421745699 1375059337982271093 889.42114 
183347496429049 1375059338045577374 889.42114 
183347549381895 1375059338107894269 889.3612 
183347618998864 1375059338172530499 889.42114 
183347694109502 1375059338236373273 889.3912 
183347744559677 1375059338299666730 889.3612 
183347803158791 1375059338365218488 889.3312 
183347869601641 1375059338426839655 889.3912 
183347929696256 1375059338490651911 889.41113 
183347992934467 1375059338553945368 889.3512 
183348060537091 1375059338617818659 889.42114 
183348124996117 1375059338682149714 889.38116 
183348188753175 1375059338745290583 889.38116 
183348252143990 1375059338808248347 889.38116 
183348316541974 1375059338872274226 889.44116 
183348377613239 1375059338933461970 889.38116 
183348438043576 1375059338999227351 889.5011 
183348502380522 1375059339062490290 889.3512 
183348605691982 1375059339126363581 889.3512 
183348667923021 1375059339190664118 889.38116 
183348734823678 1375059339253665357 889.41113 
183348811643455 1375059339316226392 889.3512 
183348853883650 1375059339380679517 889.44116 
183348903448734 1375059339443942456 889.3212 
183348973248826 1375059339508639722 889.41113 
183349041461859 1375059339573611646 889.29126 
183349110926226 1375059339634951978 889.41113 
183349175873578 1375059339698245435 889.44116 
183349235601946 1375059339762088208 889.3712 
183349293621174 1375059339825351148 889.43115 
183349351335199 1375059339889224439 889.43115 
183349435937671 1375059339952823072 889.43115 
183349466305442 1375059340016360669 889.4012 
183349519838174 1375059340079684644 889.3712 
183349581672450 1375059340142276197 889.3112 
183349645704190 1375059340206759839 889.3712 
183349710865186 1375059340270633130 889.3412 
183349804654289 1375059340333835035 889.3712 
183349843018397 1375059340398654371 889.3712 
