#SysTm EventTmStmp Pressure
73733241394958 1379301182625470644 996.78217 
73733330758608 1379301182879743105 996.66223 
73733363659570 1379301182943707949 996.81213 
73733434894119 1379301183006848818 996.81213 
73733482505899 1379301183071240908 996.8421 
73733546415559 1379301183134015566 996.81213 
73733609409608 1379301183197949892 996.6922 
73733673502390 1379301183261090761 996.60223 
73733730667047 1379301183325086123 996.78217 
73733794851390 1379301183388469831 996.72217 
73733861691005 1379301183452465193 996.7522 
73733922182383 1379301183515636579 996.6922 
73734015635764 1379301183579540388 996.7522 
73734055068085 1379301183642711775 996.39233 
73734111958059 1379301183706737654 996.42236 
73734175226790 1379301183769909040 996.72217 
73734248719848 1379301183833812849 996.8421 
73734302283101 1379301183897014753 996.9021 
73734366253801 1379301183960949079 996.66223 
73734429461492 1379301184024181501 996.6322 
73734509333306 1379301184088146345 996.7522 
73734599002161 1379301184151317732 996.66223 
73734620519023 1379301184215266757 996.6322 
73734684398162 1379301184279140048 996.5423 
73734747636373 1379301184342372470 996.4723 
73734812248004 1379301184405604892 996.66223 
73734875852459 1379301184469600253 996.42236 
73734940708249 1379301184532771640 996.78217 
73735005136755 1379301184596339755 996.6922 
73735069748385 1379301184660914950 996.78217 
73735186366726 1379301184723842196 996.6922 
73735195187113 1379301184787654452 996.20245 
73735256288899 1379301184850947909 996.78217 
73735320564804 1379301184914149814 996.99207 
73735388808357 1379301184978084140 996.7522 
73735453511546 1379301185041255527 996.2924 
73735511530773 1379301185105281405 996.72217 
73735574005975 1379301185168452792 996.72217 
73735638129279 1379301185232417636 996.81213 
73735741257616 1379301185295741611 996.72217 
73735765124547 1379301185359096103 996.66223 
73735829858256 1379301185423610263 996.6322 
73735892791264 1379301185487330966 995.9626 
73735955327509 1379301185549830966 996.81213 
73736037335749 1379301185614253573 997.02203 
73736101214887 1379301185677333407 996.8421 
73736165307669 1379301185741420321 996.7522 
73736235565566 1379301185804500155 996.6922 
73736331277454 1379301185868275824 996.78217 
73736338877027 1379301185931416693 996.56226 
73736401626912 1379301185996297064 995.9626 
73736467001549 1379301186058583441 996.78217 
73736549589678 1379301186123006048 996.81213 
73736625371762 1379301186186238470 996.72217 
73736672861461 1379301186250233831 996.78217 
73736736862683 1379301186312886419 996.71216 
73736803000329 1379301186376851263 996.7522 
73736875852458 1379301186440022650 996.81213 
73736991066864 1379301186504231634 996.6822 
73737036359096 1379301186631076274 996.8721 
73737099627829 1379301186694278178 996.93207 
73737163964773 1379301186758212504 996.7522 
73737236694821 1379301186821414409 996.72217 
73737305853984 1379301186885898051 995.99255 
73737367688258 1379301186948977885 996.8721 
73737432910294 1379301187013064799 996.71216 
73737500329796 1379301187076144633 996.77216 
73737615300039 1379301187140078959 996.7422 
73737619664452 1379301187202762065 997.14197 
73737672128972 1379301187266726909 997.34186 
73737741227096 1379301187329959331 996.6522 
73737799643088 1379301187393924174 996.5023 
73737873685512 1379301187457126079 996.7422 
73737939456914 1379301187521029887 996.77216 
73738005106235 1379301187584262309 996.8421 
73738067825599 1379301187648654399 996.77216 
73738138236098 1379301187711795268 996.8021 
73738302222060 1379301187776034770 996.77216 
73738327248766 1379301187902408061 996.5323 
73738377088533 1379301187965609965 996.7422 
73738437793553 1379301188029574809 996.05255 
73738505243577 1379301188092776713 996.5923 
73738562194591 1379301188156741557 997.23193 
73738633764864 1379301188219912944 996.6522 
73738734817817 1379301188284578706 996.6822 
73738766864207 1379301188347689057 996.6522 
73738817253343 1379301188411165620 996.83215 
73738884794927 1379301188474367524 997.3718 
73738943607685 1379301188538332368 996.9021 
73739013865582 1379301188601503755 996.5923 
73739105121496 1379301188665987397 995.85266 
73739154839182 1379301188729067231 997.082 
73739213896101 1379301188793123628 996.7422 
73739277958363 1379301188856233979 996.7422 
73739354411896 1379301188920259858 996.83215 
73739395492317 1379301188982942964 996.8921 
73739452382292 1379301189046907807 997.2619 
73739515589982 1379301189110093545 996.0825 
73739579560684 1379301189174058389 996.1725 
73739661813086 1379301189237260293 996.2924 
73739706769595 1379301189301194619 996.83215 
73739771106539 1379301189364366006 996.6522 
73739847499031 1379301189429185342 996.8621 
73739917817969 1379301189491898965 996.8021 
73740055281726 1379301189556168985 996.6822 
73740089861309 1379301189682572793 996.83215 
73740155968435 1379301189745744180 997.23193 
73740224517191 1379301189809770059 996.3824 
73740291326287 1379301189872910928 996.3524 
73740368481787 1379301189937364053 996.1425 
73740436969503 1379301190000535440 996.6522 
73740505365658 1379301190064500283 996.83215 
73740539578994 1379301190127183389 996.6822 
73740648994530 1379301190191270303 996.83215 
73740661294240 1379301190254258584 996.6522 
73740723677881 1379301190318253945 996.62225 
73740786855051 1379301190381425332 996.5023 
73740857936998 1379301190445451211 996.92206 
73740953496285 1379301190508988809 996.92206 
73740977943103 1379301190572556924 996.7422 
73741049849100 1379301190636796426 996.71216 
73741122914872 1379301190699662637 996.71216 
73741210355739 1379301190763468846 996.77216 
73741283452030 1379301190827097996 996.77216 
73741295477057 1379301190890208348 996.6522 
73741363201763 1379301190954173191 996.3824 
73741427202984 1379301191017344578 996.71216 
73741493920517 1379301191081278904 996.71216 
73741553740448 1379301191144450291 996.5923 
73741635840250 1379301191208659275 996.77216 
73741692974386 1379301191272044285 996.71216 
73741757463933 1379301191336100682 996.7422 
73741850978354 1379301191399180516 996.77216 
73741914063963 1379301191462840184 996.6522 
73741931155372 1379301191525872552 996.62225 
73741995156593 1379301191589837396 996.41235 
73742058547406 1379301191653008782 996.6822 
73742136862683 1379301191717461907 996.77216 
73742197048856 1379301191780145013 996.62225 
73742263796910 1379301191844689691 996.6822 
73742326455234 1379301191907677972 996.6522 
73742390273334 1379301191971734368 996.7422 
73742453267382 1379301192035394036 996.71216 
73742557555494 1379301192098992669 996.83215 
73742566894727 1379301192161553704 996.6522 
73742633001854 1379301192225518548 996.3224 
73742699078461 1379301192288689935 996.5923 
73742763384885 1379301192352654779 996.7422 
73742842676812 1379301192416253411 996.5923 
73742901398009 1379301192480340325 996.6822 
73742966436922 1379301192543420159 996.7422 
73743028759523 1379301192607446038 996.71216 
73743103351313 1379301192670525872 996.77216 
73743242371608 1379301192734582269 996.71216 
73743266635304 1379301192861169183 996.6822 
73743329842996 1379301192924371087 996.3524 
73743393874737 1379301192988335931 996.5923 
73743484825446 1379301193051659906 996.7422 
73743545652548 1379301193115990960 996.77216 
73743603183452 1379301193179522641 996.6822 
73743666757386 1379301193243701108 996.7422 
73743729690394 1379301193306475766 996.7422 
73743819267687 1379301193369616635 996.7422 
73743841394957 1379301193434100278 996.56226 
73743902496742 1379301193497119077 996.8621 
73743965551832 1379301193560290464 996.62225 
73744030773868 1379301193624255307 996.5023 
73744115162696 1379301193687426694 996.6822 
73744174128058 1379301193751940854 996.7422 
73744238342920 1379301193814990171 996.8021 
73744301977896 1379301193879046567 996.6822 
73744385206951 1379301193942079405 996.6822 
73744414811714 1379301194006044249 996.77216 
73744474112797 1379301194068818907 996.62225 
73744538052976 1379301194132753234 996.41235 
73744601382748 1379301194195955138 996.6522 
73744667703517 1379301194259981017 996.8021 
73744733627523 1379301194323091368 996.62225 
73744811332390 1379301194387575011 996.8021 
73744872190012 1379301194450654845 996.7422 
73744943271959 1379301194514680724 996.77216 
73745010996667 1379301194577760558 996.77216 
73745063064422 1379301194641816954 996.6822 
73745132864513 1379301194704561095 996.77216 
73745173822852 1379301194768434386 996.71216 
73745237152625 1379301194831575255 996.4723 
73745313331475 1379301194896119933 996.5923 
73745375287830 1379301194960237364 996.71216 
73745445637288 1379301195023256163 996.3524 
73745508692377 1379301195086335997 996.8021 
73745567444095 1379301195150422911 996.77216 
73745634955158 1379301195213441710 996.77216 
73745710432039 1379301195277742247 996.71216 
73745760393887 1379301195340120177 996.77216 
73745813590897 1379301195404115538 996.5323 
73745873746552 1379301195467347960 996.8621 
73745944797980 1379301195531221251 996.3824 
73746015025356 1379301195594696023 996.1725 
73746077561598 1379301195660186746 996.3824 
73746142539472 1379301195722259500 996.7422 
73746203030849 1379301195786315896 996.71216 
73746266238539 1379301195849426248 996.7422 
73746335733428 1379301195913665750 996.8021 
73746404495826 1379301195976074197 996.7422 
73746445301563 1379301196040069558 996.6522 
73746508478734 1379301196103240945 996.8021 
73746572449435 1379301196167205789 996.5923 
73746636603259 1379301196230377175 996.62225 
73746718764100 1379301196294860818 996.5323 
73746778187266 1379301196357971169 996.7422 
73746844843759 1379301196421981529 996.71216 
73746905853982 1379301196485091881 996.71216 
73746968481787 1379301196549209313 996.7422 
73747045576247 1379301196611739830 996.71216 
73747081010400 1379301196675704674 996.8621 
73747144218090 1379301196738906578 996.4423 
73747208738157 1379301196802871422 996.26245 
73747283696193 1379301196866042809 996.41235 
73747339762116 1379301196930007652 996.2924 
73747403976981 1379301196993179039 996.6822 
73747476707027 1379301197057662682 996.6822 
73747560790654 1379301197120773033 996.6522 
73747610783023 1379301197184219078 996.77216 
73747665872294 1379301197247420983 996.71216 
73747716749756 1379301197311385826 996.62225 
73747779926925 1379301197374557213 996.7422 
73747844111270 1379301197438522057 996.77216 
73747908204051 1379301197501723961 996.3224 
73747992745483 1379301197566177086 996.77216 
73748053603105 1379301197629256920 996.6522 
73748136557478 1379301197693343834 996.8021 
73748178248306 1379301197756271080 996.71216 
73748225860086 1379301197820144371 996.6822 
73748318336815 1379301197883071617 996.5923 
73748352428071 1379301197947005943 996.92206 
73748417955311 1379301198010268883 996.3524 
73748479728544 1379301198074443157 996.5023 
73748543699246 1379301198137614543 996.25244 
73748612125919 1379301198201548870 996.7422 
73748674143315 1379301198264720256 996.7422 
73748739731597 1379301198328685100 996.71216 
73748798208629 1379301198390330608 996.6822 
73748866543743 1379301198455973918 996.6822 
73748965155066 1379301198518962200 996.71216 
73749004923110 1379301198582896526 996.77216 
73749066635305 1379301198646159465 996.3224 
73749116658194 1379301198710154827 996.5023 
73749186153083 1379301198773326213 996.83215 
73749249543896 1379301198837291057 996.8621 
73749307288439 1379301198900444392 996.6822 
73749373975454 1379301198964409236 996.62225 
73749437305226 1379301199027580622 996.71216 
73749507654684 1379301199091545466 996.71216 
73749564941423 1379301199154808405 996.4423 
73749623967823 1379301199218590144 996.41235 
73749687206035 1379301199281792048 996.4423 
73749751176735 1379301199345787409 996.3124 
73749818504677 1379301199408958796 996.4423 
73749882231214 1379301199472893122 996.77216 
73749943699243 1379301199536033991 996.6522 
73750033795383 1379301199599235896 996.5923 
73750084550763 1379301199663231257 996.7422 
73750166162237 1379301199727135066 996.56226 
73750195950121 1379301199790459040 996.25244 
73750263674828 1379301199854332331 996.2824 
73750326485754 1379301199917503718 996.2824 
73750390883740 1379301199981438044 996.71216 
73750450520547 1379301200044670466 996.5323 
73750514155524 1379301200108574275 996.6822 
73750578034663 1379301200171806696 996.7422 
73750648353601 1379301200235771540 996.6822 
73750711317129 1379301200299095515 996.71216 
73750773487127 1379301200362846736 996.56226 
73750834039547 1379301200426048640 996.2225 
73750899749908 1379301200490252717 996.25244 
73750958745788 1379301200553424104 996.83215 
73751026653616 1379301200617327912 996.56226 
73751085771577 1379301200680499299 996.6822 
73751149803319 1379301200744494661 996.56226 
73751213133091 1379301200807605012 996.5923 
73751276981710 1379301200871661409 996.6522 
73751374097535 1379301200934954866 996.6522 
73751413438294 1379301200999102815 996.5923 
73751467276232 1379301201061938508 996.71216 
73751531521615 1379301201125842317 996.5923 
73751604312703 1379301201189013703 996.4723 
73751658516885 1379301201253039582 996.3424 
73751725142857 1379301201316192768 996.7422 
73751787557019 1379301201380249164 996.6522 
73751849421813 1379301201443390033 996.71216 
73751915162696 1379301201507263324 996.6522 
73751998696955 1379301201570587299 996.77216 
73752040387784 1379301201634430072 996.62225 
73752102954547 1379301201697601459 996.7422 
73752166925247 1379301201761566303 996.3424 
73752236389614 1379301201824798725 996.4324 
73752294103639 1379301201888733051 996.6822 
73752357830176 1379301201951904437 996.7422 
73752422014519 1379301202015899799 996.71216 
73752485527415 1379301202079071185 996.71216 
73752592562360 1379301202142974994 996.71216 
73752612217479 1379301202206848285 996.7422 
73752675547253 1379301202270111225 996.25244 
73752741440736 1379301202333313129 996.5923 
73752808585556 1379301202397308490 996.3124 
73752868283403 1379301202460479877 996.6522 
73752932193063 1379301202524444721 996.8021 
73752993905257 1379301202587616107 996.77216 
73753057204509 1379301202651519916 996.8021 
73753120900526 1379301202715301654 996.71216 
73753198544352 1379301202778656146 996.8621 
73753247254868 1379301202841797016 996.3724 
73753314216564 1379301202906031751 996.4923 
73753374738462 1379301202969233656 996.3724 
73753438648121 1379301203033198500 996.56226 
73753502008416 1379301203096369886 996.2824 
73753565643392 1379301203160304212 996.7422 
73753630743345 1379301203223475599 996.77216 
73753703015589 1379301203287531996 996.8021 
73753777119052 1379301203350611830 996.6822 
73753821343071 1379301203415248060 996.46234 
73753883024743 1379301203477748060 996.77216 
73753946964923 1379301203541682386 996.4923 
73754010538861 1379301203604853773 996.25244 
73754074448520 1379301203668879652 996.56226 
73754137534128 1379301203732063359 996.3124 
73754202023674 1379301203795997685 996.71216 
73754271976368 1379301203859199589 996.8021 
73754329446231 1379301203923957890 996.71216 
73754427141942 1379301203986488407 996.6822 
73754455739530 1379301204050270146 996.4923 
73754519343986 1379301204113624638 996.98206 
73754582856881 1379301204177406376 996.98206 
73754646003533 1379301204240547245 996.25244 
73754710096314 1379301204304512089 996.3724 
73754774891064 1379301204367683476 996.62225 
73754841089752 1379301204431617802 996.71216 
73754910523598 1379301204494819706 996.71216 
73754986122561 1379301204558998173 996.6522 
73755066177498 1379301204622139042 996.71216 
73755100299274 1379301204685890263 996.7422 
73755162438752 1379301204749061650 996.77216 
73755222808048 1379301204813057011 996.6822 
73755318733581 1379301204876258915 996.952 
73755370740295 1379301204940254277 996.4324 
73755431414794 1379301205003395146 996.7422 
73755494836127 1379301205067329472 996.7422 
73755565032983 1379301205130561894 996.7422 
73755661141636 1379301205194526737 996.77216 
73755679453859 1379301205257698124 996.7422 
73755756426239 1379301205322085483 996.8021 
73755808097229 1379301205385043247 996.77216 
73755874601121 1379301205448977573 996.3724 
73755920106996 1379301205512118442 996.40234 
73755984016656 1379301205576113803 996.8621 
73756047590591 1379301205639315708 996.4324 
73756109180702 1379301205703250034 996.6522 
73756172022149 1379301205766451938 996.71216 
73756235931809 1379301205830416782 996.77216 
73756304266922 1379301205893588169 996.71216 
73756384474462 1379301205957736118 996.7422 
73756426012688 1379301206020693881 996.61224 
73756490502234 1379301206084628208 996.83215 
73756554442415 1379301206147872926 996.8021 
73756617344902 1379301206211837770 996.4324 
73756682048091 1379301206275009157 996.40234 
73756744584334 1379301206338974001 996.61224 
73756818229992 1379301206402114870 996.61224 
73756872006889 1379301206466110231 996.77216 
73756986244643 1379301206529281618 996.71216 
73757003305532 1379301206593185426 996.4923 
73757061721524 1379301206656387331 996.8921 
73757125722743 1379301206720352175 996.55225 
73757188869395 1379301206783493044 996.2824 
73757257662313 1379301206847457887 996.3424 
73757319679710 1379301206910659792 996.67224 
73757381910750 1379301206974655153 996.7422 
73757444691155 1379301207037796022 996.71216 
73757532925552 1379301207102005007 996.67224 
73757570313008 1379301207164901735 996.92206 
73757660439668 1379301207228836061 996.4923 
73757717115999 1379301207292037966 996.4923 
73757778828193 1379301207355972292 996.77216 
73757841242354 1379301207419204714 996.46234 
73757903900677 1379301207483108522 996.67224 
73757965979115 1379301207546279909 996.8021 
73758038526040 1379301207610305788 996.7422 
73758124410368 1379301207673477175 996.7422 
73758159783480 1379301207737650858 996.55225 
73758222899610 1379301207800791727 996.4923 
73758289250899 1379301207864817606 996.4923 
73758356090514 1379301207927958475 996.7422 
73758404892591 1379301207991923319 996.5223 
73758461019555 1379301208055125223 996.71216 
73758524501928 1379301208119120584 996.61224 
73758588838873 1379301208182475076 996.61224 
73758687938522 1379301208246531473 996.7422 
73758736282793 1379301208309397684 996.5223 
73758780964618 1379301208373332010 996.4923 
73758846797061 1379301208436503397 996.3724 
73758908417693 1379301208500437723 996.5823 
73758977668417 1379301208564353831 996.7022 
