#SysTm EventTmStmp Pressure
92003532052417 1374955178160782808 888.6915 
92003578351822 1374955178224991793 888.66156 
92003588301464 1374955178288649968 888.66156 
92003596938729 1374955178352889470 888.6915 
92003605850677 1374955178415664128 888.55164 
92003635974286 1374955178479903630 888.66156 
92003658559361 1374955178542800359 888.6915 
92003713526552 1374955178606795720 888.66156 
92003776642682 1374955178669906071 888.72156 
92003841620555 1374955178733779362 888.72156 
92003908490691 1374955178797072819 888.7815 
92003970813290 1374955178861251286 888.66156 
92004033044331 1374955178924148015 888.6915 
92004101898290 1374955178988082341 888.6915 
92004159307109 1374955179051345280 888.6316 
92004222209597 1374955179115172344 888.72156 
92004286241338 1374955179178465801 888.6915 
92004349357470 1374955179242339092 888.66156 
92004412473599 1374955179305571514 888.6915 
92004476413780 1374955179369475322 888.66156 
92004539713031 1374955179432768779 888.72156 
92004604202577 1374955179496581035 888.6016 
92004667654433 1374955179560484844 888.66156 
92004731747214 1374955179623717266 888.6915 
92004794252936 1374955179687315899 888.72156 
92004857826871 1374955179750853496 888.72156 
92004921126125 1374955179814177471 888.6915 
92004984974743 1374955179877989727 888.6915 
92005048273996 1374955179941313701 888.7415 
92005112153135 1374955180005156475 888.66156 
92005176795283 1374955180069792705 888.6216 
92005239301005 1374955180132292705 888.7415 
92005302630779 1374955180195555645 888.6016 
92005366906682 1374955180259398418 888.6816 
92005429687088 1374955180322691875 888.71155 
92005493749350 1374955180386565166 888.6516 
92005556896001 1374955180449858623 888.7415 
92005620714100 1374955180513670879 888.6516 
92005684013351 1374955180576964336 888.7415 
92005748228215 1374955180640837627 888.7415 
92005811161223 1374955180704070049 888.6216 
92005876230656 1374955180769284797 888.6216 
92005938309094 1374955180831449104 888.6516 
92006002462916 1374955180895597053 888.70154 
92006065456965 1374955180958585334 888.70154 
92006129549748 1374955181022458625 888.76154 
92006192543795 1374955181085691047 888.7915 
92006262008163 1374955181149594856 888.70154 
92006338461696 1374955181212918831 888.70154 
92006403348006 1374955181277677131 888.6416 
92006464968639 1374955181339994026 888.6716 
92006532082938 1374955181403897834 888.70154 
92006595534792 1374955181467160774 888.70154 
92006657430107 1374955181531034065 888.6416 
92006718379290 1374955181594281205 888.6716 
92006797060811 1374955181658215531 888.70154 
92006828344192 1374955181721386918 888.70154 
92006893016861 1374955181785382279 888.6416 
92006956224552 1374955181848675736 888.6716 
92007029259802 1374955181912396439 888.6716 
92007091551884 1374955181975689896 888.6915 
92007163854645 1374955182039593705 888.7515 
92007244489468 1374955182103100785 888.6116 
92007274155271 1374955182166699418 888.6416 
92007342673507 1374955182229992875 888.72156 
92007400601174 1374955182293774613 888.72156 
92007469027849 1374955182357129105 888.72156 
92007549906835 1374955182421002396 888.72156 
92007612534640 1374955182484387406 888.7815 
92007677878756 1374955182548199662 888.6116 
92007743680679 1374955182611401566 888.72156 
92007811191743 1374955182675274857 888.6915 
92007865121240 1374955182738507279 888.72156 
92007932723866 1374955182802441605 888.6416 
92008016441246 1374955182865643509 888.66156 
92008090636271 1374955182929486283 888.6915 
92008124880130 1374955182992779740 888.72156 
92008196053637 1374955183056622513 888.7515 
92008258986646 1374955183119915970 888.72156 
92008316944832 1374955183183758744 888.6316 
92008397121851 1374955183247264401 888.7515 
92008453401417 1374955183311107174 888.7515 
92008512671981 1374955183374400631 888.7815 
92008593550967 1374955183438273922 888.66156 
92008628985119 1374955183501506344 888.72156 
92008674796199 1374955183565532223 888.72156 
92008735470699 1374955183628703610 888.6915 
92008799258276 1374955183692485348 888.6915 
92008862832213 1374955183755900875 888.66156 
92008934097282 1374955183819682614 888.6915 
92008996725087 1374955183882945553 888.66156 
92009061916601 1374955183946879879 888.66156 
92009122499540 1374955184010081784 888.72156 
92009187813137 1374955184074091744 888.7815 
92009244184265 1374955184137385201 888.71155 
92009308032884 1374955184201197457 888.7415 
92009371301617 1374955184264460396 888.6915 
92009435150235 1374955184328333687 888.71155 
92009498449486 1374955184391627144 888.6516 
92009562328626 1374955184455500435 888.6816 
92009625597359 1374955184518773572 888.7415 
92009689690141 1374955184582616345 888.8015 
92009754454370 1374955184645940320 888.6816 
92009814701585 1374955184707829968 888.7415 
92009879832059 1374955184773015515 888.7415 
92009943741721 1374955184836888806 888.6516 
92010008109186 1374955184900517956 888.6816 
92010070889591 1374955184964025036 888.73157 
92010134188842 1374955185027318493 888.6816 
92010198037461 1374955185091161267 888.6716 
92010261367235 1374955185154454724 888.76154 
92010325215853 1374955185218328015 888.73157 
92010388545626 1374955185281621472 888.73157 
92010452699448 1374955185345539934 888.76154 
92010515632457 1374955185408802874 888.76154 
92010579511595 1374955185472676165 888.8215 
92010642810848 1374955185535969622 888.70154 
92010706781549 1374955185599781878 888.73157 
92010769958719 1374955185663105852 888.73157 
92010833776819 1374955185726918108 888.76154 
92010897106591 1374955185790242083 888.76154 
92010960924689 1374955185854054339 888.8215 
92011022942085 1374955185916066057 888.8215 
92011088347243 1374955185981190569 888.7915 
92011151371813 1374955186044484026 888.8215 
92011216776970 1374955186108601458 888.76154 
92011278489164 1374955186171589739 888.76154 
92011342398823 1374955186235493548 888.72156 
92011405759117 1374955186298817522 888.7815 
92011475650769 1374955186362629778 888.7815 
92011560131160 1374955186425923235 888.7815 
92011617387379 1374955186489857561 888.8115 
92011679069052 1374955186553059466 888.7815 
92011729122462 1374955186616871722 888.7815 
92011787752097 1374955186680195696 888.7815 
92011850776667 1374955186744007952 888.72156 
92011916822752 1374955186807270891 888.6915 
92012001120020 1374955186871174700 888.7515 
92012061825041 1374955186934437639 888.6915 
92012123018388 1374955186998518520 888.7515 
92012191139859 1374955187061720424 888.72156 
92012269821378 1374955187125196986 888.6915 
92012295489011 1374955187188826137 888.66156 
92012362542268 1374955187252760463 888.72156 
92012423796656 1374955187317091518 888.72156 
92012487614755 1374955187379866176 888.7415 
92012557872652 1374955187443129115 888.66156 
92012617570501 1374955187506971889 888.7815 
92012676932624 1374955187570234828 888.7515 
92012743467035 1374955187634138637 888.71155 
92012805179229 1374955187697401576 888.7715 
92012868173277 1374955187761380092 888.7715 
92012931442009 1374955187824643032 888.71155 
92012995290627 1374955187888516323 888.8315 
92013058650921 1374955187951840297 888.7415 
92013122438499 1374955188015622036 888.7415 
92013185707232 1374955188078915493 888.7715 
92013249433769 1374955188142758266 888.71155 
92013314259041 1374955188206153515 888.71155 
92013376795283 1374955188269935253 888.66156 
92013442169919 1374955188333259228 888.7715 
92013503729511 1374955188397040966 888.7715 
92013567150845 1374955188460364941 888.71155 
92013632220279 1374955188525367382 888.6816 
92013694420798 1374955188587440136 888.66156 
92013762969554 1374955188651343945 888.66156 
92013825017471 1374955188714606884 888.71155 
92013885386767 1374955188778510693 888.6816 
92013948655500 1374955188841773632 888.6516 
92014012443077 1374955188905616406 888.7715 
92014075589727 1374955188968848827 888.71155 
92014139896152 1374955189033224923 888.7415 
92014205392871 1374955189096121651 888.7715 
92014267196626 1374955189159933907 888.6516 
92014345267737 1374955189223227364 888.71155 
92014393856172 1374955189287100655 888.71155 
92014457246984 1374955189350333077 888.6816 
92014521156643 1374955189414206368 888.6816 
92014584211732 1374955189477499825 888.6816 
92014648273994 1374955189541403633 888.6816 
92014711512206 1374955189604636055 888.71155 
92014775391345 1374955189668509346 888.73157 
92014841895236 1374955189732809883 888.6816 
92014902478176 1374955189795615059 888.76154 
92014966113152 1374955189859244210 888.76154 
92015029656567 1374955189922781807 888.6216 
92015093016860 1374955189986136299 888.76154 
92015156804438 1374955190049918038 888.6716 
92015220195252 1374955190113211495 888.70154 
92015286546541 1374955190177023751 888.73157 
92015351036088 1374955190241721016 888.70154 
92015414457422 1374955190304221016 888.73157 
92015474338391 1374955190367422921 888.5916 
92015538187012 1374955190431326729 888.70154 
92015601547304 1374955190494620186 888.6716 
92015665365402 1374955190558432442 888.73157 
92015730221195 1374955190621725899 888.70154 
92015793612007 1374955190685781135 888.73157 
92015855843047 1374955190749074592 888.76154 
92015919661145 1374955190812856330 888.70154 
92015983021438 1374955190876210822 888.70154 
92016046961619 1374955190940023078 888.6416 
92016110352432 1374955191003255500 888.6716 
92016174292612 1374955191067433967 888.6116 
92016237286659 1374955191130422248 888.70154 
92016301104758 1374955191194265021 888.6716 
92016364404012 1374955191257558478 888.7815 
92016428863037 1374955191321401252 888.8115 
92016496953988 1374955191384664191 888.70154 
92016555766745 1374955191448690070 888.6116 
92016665395924 1374955191511967514 888.6716 
92016738156491 1374955191575810288 888.6416 
92016803622689 1374955191639073227 888.6716 
92016849311686 1374955191702977036 888.6716 
92016918104606 1374955191766209458 888.6716 
92016982349991 1374955191830082749 888.6016 
92017021049822 1374955191893376206 888.66156 
92017064022506 1374955191957168205 888.72156 
92017132784905 1374955192020553214 888.66156 
92017191200898 1374955192084487541 888.72156 
92017254317027 1374955192147628410 888.72156 
92017345511900 1374955192211471183 888.6316 
92017390773612 1374955192275100334 888.6316 
92017455049516 1374955192338607414 888.72156 
92017512702500 1374955192401900871 888.66156 
92017572644510 1374955192465774162 888.6915 
92017635913244 1374955192529037101 888.6316 
92017699761862 1374955192592879875 888.72156 
92017765319622 1374955192656173332 888.7415 
92017826879213 1374955192720046623 888.7415 
