#SysTm EventTmStmp Pressure
197103961084688 1378672931051312345 1000.0304 
197103996610401 1378672931305554288 1000.0703 
197104051119786 1378672931368725675 1000.10034 
197104116158699 1378672931432721036 1000.1303 
197104173567520 1378672931495831388 999.85046 
197104237171975 1378672931559796231 999.85046 
197104300471229 1378672931623210528 999.9404 
197104364167245 1378672931687144854 1000.0304 
197104430243852 1378672931750407794 1000.24023 
197104494000909 1378672931814372637 999.7505 
197104556598192 1378672931877513507 1000.1803 
197104619012354 1378672931941478350 1000.10034 
197104683379819 1378672932004649737 1000.1303 
197104777352047 1378672932068645098 1000.0703 
197104807262011 1378672932130107501 1000.10034 
197104872789251 1378672932195720294 999.7905 
197104935966421 1378672932258891680 999.9104 
197105000150764 1378672932322887042 1000.3702 
197105063175334 1378672932386027911 1000.24023 
197105127054472 1378672932449946357 1000.0304 
197105190628408 1378672932513148261 1000.10034 
197105254477026 1378672932577174140 1000.0304 
197105365113377 1378672932640345527 1000.1303 
197105402561874 1378672932704218818 1000.0703 
197105444588426 1378672932767451240 999.8205 
197105508559127 1378672932831355048 999.88043 
197105571797337 1378672932894556953 999.7905 
197105635676478 1378672932958521797 999.9704 
197105698914689 1378672933021723701 1000.1803 
197105762885389 1378672933085658027 1000.1303 
197105827039212 1378672933148829414 1000.1303 
197105892902175 1378672933212824775 1000.1303 
197105959589189 1378672933276026679 999.9104 
197106016265520 1378672933338984443 1000.1803 
197106080419343 1378672933403071357 999.88043 
197106144298483 1378672933467097236 1000.1303 
197106207811377 1378672933530177070 1000.00037 
197106271476874 1378672933594202949 999.85046 
197106334745606 1378672933657374336 1000.1303 
197106398594225 1378672933721339179 1000.1303 
197106462381803 1378672933784632636 1000.1303 
197106558002130 1378672933848444892 1000.24023 
197106588949787 1378672933911646797 1000.0703 
197106652859447 1378672933975611640 1000.27026 
197106716067138 1378672934038813545 999.85046 
197106780037838 1378672934102807635 999.7205 
197106862870130 1378672934166406268 999.9104 
197106924521281 1378672934230493182 1000.10034 
197107001859905 1378672934293573016 1000.1803 
197107043703335 1378672934357110614 1000.0703 
197107129770784 1378672934420282000 1000.10034 
197107161542494 1378672934484277362 999.9104 
197107224444980 1378672934547204608 1000.1803 
197107288659844 1378672934611383075 1000.30023 
197107351806493 1378672934674523944 1000.30023 
197107415655113 1378672934738397235 999.85046 
197107484295431 1378672934801721209 1000.0703 
197107543535473 1378672934865625018 1000.0703 
197107624048215 1378672934928963626 1000.1303 
197107705781772 1378672934992897952 1000.21027 
197107733219587 1378672935056099857 1000.27026 
197107797220809 1378672935120034183 999.9404 
197107860550580 1378672935183236087 999.7205 
197107924307638 1378672935247109378 1000.1303 
197107987515330 1378672935310372318 1000.1303 
197108058780398 1378672935374439167 1000.10034 
197108114876844 1378672935437580036 1000.10034 
197108182845712 1378672935501514362 1000.10034 
197108327237595 1378672935565112995 1000.1803 
197108369019984 1378672935691852497 1000.46014 
197108432929643 1378672935755817341 999.8205 
197108496106815 1378672935818958210 1000.40015 
197108560138555 1378672935882923054 999.88043 
197108623254686 1378672935946033405 999.88043 
197108687377987 1378672936010089802 1000.1303 
197108751135045 1378672936073230671 1000.21027 
197108823834574 1378672936137226032 1000.0703 
197108906972067 1378672936200747676 1000.0703 
197109004148931 1378672936264865108 1000.1303 
197109009581558 1378672936327548213 1000.0304 
197109068852121 1378672936391513057 999.7505 
197109134989770 1378672936455050655 1000.10034 
197109195938953 1378672936518649288 999.9704 
197109277428346 1378672936581942745 1000.1803 
197109343199748 1378672936646243282 1000.1803 
197109401768343 1378672936709384151 1000.0304 
197109468211195 1378672936773379512 1000.1303 
197109535752778 1378672936836154170 1000.10034 
197109615807714 1378672936900027461 1000.1803 
197109640529216 1378672936963229366 999.7505 
197109704560956 1378672937027163692 1000.3302 
197109767707608 1378672937090335079 999.9704 
197109831891950 1378672937154483028 1000.40015 
197109894885999 1378672937217501827 1000.0703 
197109960596361 1378672937281436153 1000.0304 
197110042329919 1378672937344668575 1000.10034 
197110102973899 1378672937408633419 1000.10034 
197110161054167 1378672937471804805 1000.10034 
197110280907669 1378672937535769649 1000.0703 
197110285394164 1378672937598910518 1000.21027 
197110341154884 1378672937663638301 999.9104 
197110403508005 1378672937726046749 1000.00037 
197110467326103 1378672937790011592 999.9404 
197110535569655 1378672937853395381 999.7505 
197110602226148 1378672937917329707 1000.10034 
197110675627644 1378672937980928340 1000.10034 
197110734776126 1378672938044984737 1000.0703 
197110805797033 1378672938108064571 1000.1303 
197110874162666 1378672938172090449 1000.10034 
197110947350520 1378672938234834590 1000.1803 
197110975887068 1378672938298738399 1000.10034 
197111040590257 1378672938361940303 999.7905 
197111103126501 1378672938425905147 1000.00037 
197111166303671 1378672938489076533 1000.10034 
197111237141454 1378672938553071895 1000.3702 
197111305964894 1378672938616578975 1000.1803 
197111372835031 1378672938680649996 1000.1803 
197111433540050 1378672938743760348 1000.1303 
197111505354488 1378672938807847262 1000.24023 
197111584463292 1378672938870560885 1000.10034 
197111611779025 1378672938934434176 999.7205 
197111676756898 1378672938997636080 1000.00037 
197111741643209 1378672939061570406 1000.0703 
197111809673119 1378672939124741793 999.8205 
197111884142828 1378672939189194918 999.9404 
197111947258957 1378672939252335787 1000.1303 
197112025055387 1378672939316331149 1000.1803 
197112063816260 1378672939379227877 1000.0304 
197112166608874 1378672939443009615 1000.1803 
197112183730803 1378672939506211520 1000.0304 
197112247548902 1378672939570115328 1000.10034 
197112310665032 1378672939633286715 1000.40015 
197112374605211 1378672939697251559 999.9404 
197112437782382 1378672939760453463 1000.10034 
197112502912857 1378672939824418307 1000.1803 
197112566364710 1378672939887589694 1000.10034 
197112644649466 1378672939951981783 1000.10034 
197112707765596 1378672940015153170 1000.1303 
197112802683954 1378672940079209567 1000.10034 
197112819164955 1378672940141862155 1000.10034 
197112883166177 1378672940205826998 1000.0703 
197112946343347 1378672940268998385 1000.24023 
197113010283526 1378672940333144890 999.6606 
197113073430177 1378672940396346794 1000.0304 
197113137431398 1378672940460311638 999.9404 
197113201524181 1378672940523513542 1000.10034 
197113264670830 1378672940587417351 1000.10034 
197113347381040 1378672940650619255 1000.0703 
197113402317710 1378672940714553582 999.9704 
197113454934831 1378672940777755486 1000.30023 
197113518844492 1378672940841720330 1000.0304 
197113582052182 1378672940904891716 1000.27026 
197113646022883 1378672940968826042 1000.0703 
197113709474736 1378672941032027947 1000.00037 
197113773414916 1378672941095931755 1000.10034 
197113850631459 1378672941159148307 1000.21027 
197113901112155 1378672941223113151 1000.0703 
197113986050351 1378672941286315055 1000.10034 
197114027435975 1378672941350249381 1000.10034 
197114090643667 1378672941413420768 1000.46014 
197114154614367 1378672941477385612 999.9104 
197114217974660 1378672941540556999 999.9404 
197114287652670 1378672941604521842 1000.27026 
197114367738128 1378672941667693229 1000.1303 
197114448433992 1378672941732115837 1000.1303 
197114472148321 1378672941794829460 1000.1303 
197114548296650 1378672941858794303 1000.1803 
197114626123599 1378672941921965690 1000.1303 
197114663236373 1378672941985900016 1000.24023 
197114726413544 1378672942049101921 999.8205 
197114790384244 1378672942113036247 999.7205 
197114853561414 1378672942176238151 999.6306 
197114923361506 1378672942240202995 1000.21027 
197115007963979 1378672942304411979 1000.0703 
197115044679986 1378672942367400260 1000.00037 
197115107796117 1378672942430510612 1000.0703 
197115187423767 1378672942494414421 1000.0703 
197115234974507 1378672942557646842 999.8205 
197115298914689 1378672942621611686 999.88043 
197115362091859 1378672942684783073 999.7205 
197115436012200 1378672942748717399 999.9404 
197115496869822 1378672942812162148 1000.10034 
197115566639393 1378672942876126992 1000.1303 
197115641811072 1378672942939695107 1000.0703 
197115766212109 1378672943003720986 1000.1303 
197115777779330 1378672943066861855 1000.1303 
197115813244003 1378672943130399453 1000.4302 
197115870683343 1378672943193570840 1000.3702 
197115934745606 1378672943257535684 999.8205 
197115997892255 1378672943320707070 1000.00037 
197116066471532 1378672943384671914 999.88043 
197116127603838 1378672943447843301 1000.0703 
197116190658926 1378672943512967812 1000.0703 
197116266166329 1378672943575132119 1000.0304 
197116343565993 1378672943639386421 1000.10034 
197116438087586 1378672943702130561 1000.10034 
197116447426820 1378672943766034370 1000.27026 
197116506544780 1378672943829236274 999.9404 
197116570393400 1378672943893170600 999.88043 
197116633570570 1378672943956372505 999.9704 
197116700929032 1378672944020337348 1000.24023 
197116760840524 1378672944083508735 999.9704 
197116829236678 1378672944147473579 1000.10034 
197116894794438 1378672944210675483 1000.1303 
197116957208598 1378672944274609809 1000.0304 
197117052523721 1378672944337811714 1000.10034 
197117079045926 1378672944401807075 1000.3302 
197117142192576 1378672944464917426 1000.27026 
197117206163276 1378672944528851753 999.9104 
197117269401487 1378672944592053657 1000.21027 
197117333311147 1378672944656018501 999.9104 
197117466898817 1378672944719250923 1000.1303 
197117483837623 1378672944783520942 1000.1303 
197117526291462 1378672944846326118 1000.00037 
197117606132756 1378672944910168891 1000.1303 
197117650784060 1378672944973462348 999.88043 
197117714815802 1378672945037427192 1000.3302 
197117777962452 1378672945100598579 1000.0304 
197117842513039 1378672945164563423 1000.3302 
197117935722256 1378672945227765327 999.88043 
197117969172584 1378672945291939949 1000.1303 
197118032288714 1378672945355050300 1000.1303 
197118096198374 1378672945419015144 1000.1803 
197118202012507 1378672945482217048 1000.0703 
197118223346247 1378672945546151374 1000.0703 
197118286553937 1378672945609353279 999.8205 
197118350555157 1378672945673318122 999.9404 
197118413640767 1378672945736489509 1000.0304 
197118477672508 1378672945800454353 1000.0304 
197118541276965 1378672945863625740 999.85046 
197118604972982 1378672945927621101 1000.21027 
197118668394314 1378672945990761970 1000.10034 
197118743749114 1378672946054696296 1000.21027 
197118809886763 1378672946117911027 1000.40015 
197118863327934 1378672946181845353 1000.0703 
197118922812139 1378672946245077775 999.6606 
197118996335715 1378672946308981583 1000.0304 
197119067142979 1378672946372244523 1000.40015 
197119211473820 1378672946436606095 1000.27026 
197119220568891 1378672946499838517 1000.10034 
197119241170143 1378672946563315079 1000.1303 
197119307918196 1378672946627249405 1000.1303 
197119418096742 1378672946690420792 1000.10034 
197119430915298 1378672946753622696 1000.1303 
197119496106814 1378672946817526505 1000.00037 
197119558154730 1378672946880789445 999.9104 
197119622186472 1378672946944662736 1000.3702 
197119694061948 1378672947007986710 999.9404 
197119776924760 1378672947072409318 1000.04034 
197119828809392 1378672947135397599 1000.1803 
197119891956042 1378672947199453995 1000.0304 
197119953668235 1378672947262564347 1000.10034 
197120051363947 1378672947327231095 1000.10034 
197120066685173 1378672947389334366 1000.1303 
197120130564314 1378672947453238175 1000.46014 
197120193833045 1378672947516470597 1000.30023 
197120257712185 1378672947580343888 1000.0703 
197120320980916 1378672947643545792 999.7905 
197120384890576 1378672947707690893 1000.10034 
197120452981527 1378672947770892798 1000.21027 
197120518661368 1378672947834888159 1000.1803 
197120575246138 1378672947898029028 1000.1303 
197120671446352 1378672947961963354 1000.46014 
197120704591476 1378672948025165259 999.7905 
197120766822516 1378672948089130102 999.9104 
197120829511360 1378672948152301489 999.9704 
197120916555463 1378672948216235815 999.88043 
197120956598191 1378672948279437720 1000.21027 
197121027435976 1378672948343433081 1000.1803 
197121083898664 1378672948406573950 1000.1303 
197121154461764 1378672948470538794 1000.21027 
197121270347618 1378672948533755607 1000.21027 
197121277580947 1378672948597659416 1000.30023 
197121338102845 1378672948660861320 1000.3402 
197121401981985 1378672948724795646 1000.46014 
197121465189676 1378672948787997550 999.9104 
197121529221417 1378672948851962394 1000.00037 
197121592429108 1378672948915164298 999.9104 
197121661130467 1378672948979068107 1000.1303 
197121725589492 1378672949042270011 1000.1303 
197121783639241 1378672949106234855 1000.21027 
197121872575606 1378672949169802970 1000.21027 
197121944603684 1378672949233401603 999.9704 
197121973811681 1378672949296542472 1000.00037 
197122037782381 1378672949360476798 1000.27026 
197122101508920 1378672949423678703 999.8205 
197122164930253 1378672949487643546 999.9104 
197122232014030 1378672949550784416 1000.1303 
197122296991903 1378672949614749259 1000.10034 
197122357727444 1378672949677951164 1000.1803 
197122433875773 1378672949742343254 1000.1303 
197122499799778 1378672949805514640 1000.1803 
197122592764832 1378672949869052238 1000.21027 
197122625757355 1378672949932223625 1000.27026 
197122673552258 1378672949996157951 999.7205 
197122734928726 1378672950057559318 1000.10034 
197122800974813 1378672950123324699 1000.3402 
197122876878978 1378672950187104977 1000.10034 
197122941246444 1378672950251161374 1000.10034 
197123009154271 1378672950314271726 1000.10034 
197123065067594 1378672950377900876 1000.10034 
197123152874706 1378672950441377438 1000.21027 
197123225055385 1378672950505006589 1000.21027 
197123248525552 1378672950568147458 1000.0703 
197123309352654 1378672950632081784 999.9704 
197123372560345 1378672950695283688 999.9704 
197123436927811 1378672950759218015 1000.0703 
197123503279100 1378672950822419919 999.9404 
197123564319845 1378672950886384763 1000.04034 
197123633906293 1378672950949617185 1000.04034 
197123705354485 1378672951014085179 1000.1303 
197123780709285 1378672951077165013 1000.10034 
197123869554089 1378672951140885716 1000.0703 
197123881090789 1378672951203904515 999.9404 
197123943840674 1378672951266740209 1000.0703 
197124008208140 1378672951331040746 1000.0703 
197124072148321 1378672951394975072 999.85046 
197124135325491 1378672951458176976 1000.10034 
197124199479314 1378672951522141820 1000.3402 
197124263327933 1378672951585343724 1000.1303 
197124333005942 1378672951649247533 1000.0703 
197124389743315 1378672951712449437 1000.1303 
197124472728207 1378672951776872045 1000.0703 
197124549609025 1378672951839616185 1000.1303 
197124580770325 1378672951903550511 1000.1803 
197124643916975 1378672951966691381 999.88043 
197124707887677 1378672952030686742 1000.30023 
197124771217448 1378672952093858129 999.69055 
197124835249190 1378672952157792455 1000.1303 
197124904347314 1378672952220994359 1000.1803 
197124969508308 1378672952284959203 1000.0703 
197125049074919 1378672952348191625 1000.10034 
197125107582472 1378672952412125951 1000.1303 
197125157422240 1378672952474839574 1000.3702 
197125216418121 1378672952539201146 1000.00037 
197125279686852 1378672952602403050 999.7205 
197125343627032 1378672952666488383 999.9704 
197125406804202 1378672952729659769 1000.00037 
197125470713862 1378672952793624613 1000.30023 
197125533921554 1378672952856826517 1000.1303 
197125597922774 1378672952920791361 1000.1803 
197125661344108 1378672952983962748 1000.10034 
197125788980305 1378672953047897074 1000.10034 
197125794809696 1378672953111098978 1000.1303 
197125852401640 1378672953175033304 1000.3402 
197125922445893 1378672953238235209 999.8205 
197125979824194 1378672953302200053 999.8205 
197126062778566 1378672953365432474 999.9404 
197126125162206 1378672953429763529 999.88043 
197126188400419 1378672953492644834 1000.10034 
197126248525551 1378672953556609678 1000.10034 
197126317776276 1378672953620116758 1000.10034 
197126367524484 1378672953684142637 1000.0703 
197126430945817 1378672953746886777 1000.1803 
197126487896833 1378672953810790586 1000.30023 
197126551074003 1378672953873931455 999.6606 
197126615136264 1378672953937957334 1000.0703 
197126678313435 1378672954001128721 1000.1803 
197126743565990 1378672954065063047 999.8205 
197126815014183 1378672954128295469 1000.10034 
197126906697381 1378672954192718076 1000.10034 
197127022857918 1378672954255950498 1000.10034 
197127036317402 1378672954319854307 1000.00037 
197127076207530 1378672954383056211 1000.1303 
197127123727749 1378672954446502256 1000.3302 
197127186874399 1378672954509673642 999.9104 
197127250784060 1378672954573607969 999.69055 
197127313991750 1378672954636809873 999.8205 
197127378023491 1378672954700774717 1000.10034 
197127444313739 1378672954763946103 1000.10034 
197127512648853 1378672954827880430 1000.10034 
197127568470617 1378672954891051816 1000.04034 
197127656125125 1378672954955535459 1000.1303 
197127716647022 1378672955018218564 1000.0703 
197127759406063 1378672955082091855 1000.40015 
197127822644277 1378672955145566682 1000.24023 
197127886584456 1378672955209439973 1000.1803 
197127949792147 1378672955272641877 999.7205 
197128017883098 1378672955336606721 1000.21027 
197128083318776 1378672955399778108 1000.1303 
197128145793979 1378672955463712434 1000.10034 
197128208665946 1378672955526914338 1000.0703 
197128298426359 1378672955591703157 1000.0703 
197128374849372 1378672955654081086 1000.0703 
197128395206461 1378672955718015412 1000.04034 
197128458353111 1378672955781186799 1000.27026 
197128522293291 1378672955845121125 1000.30023 
197128585470462 1378672955908323030 999.9704 
197128653317250 1378672955972333083 1000.0703 
197128716280779 1378672956035534987 1000.0703 
197128781472293 1378672956099499831 1000.0703 
197128854782229 1378672956163067946 1000.0703 
197128929221417 1378672956227124343 1000.04034 
197128989071866 1378672956290845046 1000.1803 
197129030945817 1378672956353772292 1000.1803 
197129094061947 1378672956416943679 999.9704 
197129158063167 1378672956480878005 1000.30023 
197129221270859 1378672956544079909 1000.1303 
197129285149998 1378672956608014235 999.9704 
197129348357690 1378672956671216139 1000.0703 
197129455728359 1378672956735303054 999.9704 
197129493848305 1378672956798413405 1000.04034 
197129562610703 1378672956862286696 1000.1303 
197129602683951 1378672956925488600 1000.4302 
197129666685172 1378672956989422927 999.88043 
197129729862343 1378672957052624831 999.7205 
197129793772004 1378672957116589675 1000.00037 
197129856979695 1378672957179791579 999.9704 
197129920980917 1378672957243725905 1000.0703 
197129984280168 1378672957306897292 1000.0703 
197130067631304 1378672957370923171 1000.1303 
197130146801151 1378672957434094557 1000.00037 
197130211107574 1378672957497998366 1000.1303 
197130238423308 1378672957561169753 1000.10034 
197130302363487 1378672957625283322 999.6606 
197130365510139 1378672957688424192 999.9104 
197130429572400 1378672957752419553 1000.30023 
197130493024255 1378672957815865598 1000.10034 
197130556628710 1378672957879525266 1000.10034 
197130619958483 1378672957942727170 1000.10034 
197130687927352 1378672958006692014 1000.0703 
197130780587203 1378672958069863401 1000.0703 
197130816936966 1378672958133858762 1000.40015 
