#SysTm EventTmStmp Pressure
527171540596578 1379854335679342019 993.404 
527171587292747 1379854335933553445 993.50397 
527171655444737 1379854335996602761 993.444 
527171707481972 1379854336060598122 993.404 
527171774870955 1379854336123769509 993.444 
527171836522106 1379854336187917458 993.404 
527171899760318 1379854336250980235 993.404 
527171965714843 1379854336315006114 993.34406 
527172026755587 1379854336378085948 993.374 
527172089963279 1379854336442172862 993.404 
527172152255358 1379854336505252696 993.474 
527172218179363 1379854336569278575 993.374 
527172279372709 1379854336632388926 993.474 
527172343373930 1379854336696384288 993.444 
527172406490060 1379854336759494639 993.50397 
527172470552321 1379854336823520518 993.444 
527172534065217 1379854336886661387 993.444 
527172599256731 1379854336950870372 993.3141 
527172661121526 1379854337013767100 993.444 
527172724848064 1379854337077792979 993.444 
527172787994714 1379854337140933848 993.414 
527172852148537 1379854337204929209 993.474 
527172915081544 1379854337268039561 993.474 
527172979113286 1379854337332065440 993.474 
527173042595660 1379854337395206309 993.444 
527173106291678 1379854337459201670 993.3141 
527173169407808 1379854337522312022 993.374 
527173234080477 1379854337586337901 993.414 
527173299149910 1379854337649448252 993.404 
527173362571244 1379854337713474131 993.34406 
527173423703551 1379854337776584483 993.50397 
527173487735291 1379854337840610362 993.444 
527173550973503 1379854337903994080 993.444 
527173615035764 1379854337967989441 993.444 
527173677999292 1379854338031099793 993.444 
527173741969994 1379854338095125672 993.414 
527173806337458 1379854338158236023 993.374 
527173869117864 1379854338222261902 993.444 
527173932295034 1379854338285402771 993.444 
527173996754061 1379854338349398133 993.444 
527174059442907 1379854338412508484 993.374 
527174123718810 1379854338476534363 993.444 
527174189703855 1379854338539675232 993.414 
527174250622519 1379854338603670594 993.404 
527174315081544 1379854338667604920 993.374 
527174390863630 1379854338731309900 993.444 
527174456421389 1379854338794481287 993.404 
527174507634574 1379854338857866296 993.474 
527174591901322 1379854338921434412 993.474 
527174657153878 1379854338985521326 993.444 
527174720178447 1379854339048601160 993.404 
527174786529737 1379854339113023767 993.474 
527174862739105 1379854339176408777 993.474 
527174886880721 1379854339239732751 993.404 
527174950668299 1379854339302415857 993.34406 
527175015646172 1379854339367296228 993.404 
527175085629385 1379854339429552087 993.444 
527175155795721 1379854339493577966 993.404 
527175247662043 1379854339556718835 993.374 
527175286819680 1379854339620714197 993.474 
527175352377440 1379854339683885583 993.474 
527175419186535 1379854339747911462 993.474 
527175497654411 1379854339810991296 993.474 
527175527747500 1379854339876024255 993.50397 
527175604658837 1379854339938188562 993.444 
527175677694088 1379854340002641687 993.474 
527175737666619 1379854340065660486 993.444 
527175804048431 1379854340129716882 993.50397 
527175868049651 1379854340192827234 993.374 
527175932203473 1379854340257768640 993.474 
527175996387816 1379854340320116052 993.50397 
527176068019130 1379854340384172449 993.444 
527176094388734 1379854340446916545 993.50397 
527176160068574 1379854340511369670 993.474 
527176220987236 1379854340574083293 993.34406 
527176291489297 1379854340638078654 993.50397 
527176397181347 1379854340701189006 993.404 
527176412166849 1379854340765153849 993.474 
527176477053160 1379854340828294719 993.444 
527176539070557 1379854340892290080 993.444 
527176615676691 1379854340956407511 993.34406 
527176680654564 1379854341019762004 993.474 
527176750118932 1379854341082841838 993.404 
527176821719725 1379854341147050822 993.53394 
527176884011806 1379854341210266685 993.50397 
527176949630605 1379854341274811363 993.374 
527177022696377 1379854341337860679 993.50397 
527177048394530 1379854341401032066 993.404 
527177110747652 1379854341463959312 993.404 
527177177465185 1379854341528015708 993.50397 
527177251446569 1379854341591126060 993.404 
527177318530346 1379854341655151939 993.474 
527177387689511 1379854341718292808 993.474 
527177452087496 1379854341782318687 993.34406 
527177518103062 1379854341845825767 993.444 
527177584820595 1379854341909912681 993.474 
527177648333489 1379854341973389244 993.374 
527177711663263 1379854342038483238 993.53394 
527177771940998 1379854342099152183 993.474 
527177837803962 1379854342164215660 993.50397 
527177934034695 1379854342227264976 993.474 
527177946517527 1379854342291077232 993.474 
527178000965873 1379854342353912925 993.404 
527178065272299 1379854342417908286 993.444 
527178135957481 1379854342481049156 993.474 
527178202003567 1379854342545715904 993.444 
527178277633050 1379854342608215904 993.404 
527178330372252 1379854342672241783 993.374 
527178409816782 1379854342735779380 993.474 
527178448913378 1379854342799347495 993.53394 
527178509404755 1379854342862547416 993.34406 
527178574291066 1379854342926542777 993.374 
527178652575822 1379854342989714164 993.50397 
527178720544690 1379854343053709525 993.28406 
527178784118627 1379854343116880912 993.404 
527178844152199 1379854343180876273 993.34406 
527178909587877 1379854343243986625 993.404 
527178964097262 1379854343306974906 993.404 
527179063593676 1379854343371611137 993.50397 
527179082211103 1379854343435087699 993.404 
527179145113592 1379854343498167533 993.474 
527179210976554 1379854343562254447 993.444 
527179279372708 1379854343625456352 993.474 
527179360099093 1379854343689360160 993.474 
527179428739411 1379854343753263969 993.53394 
527179486728119 1379854343817320365 993.474 
527179557352260 1379854343880247611 993.474 
527179617782597 1379854343944212455 993.53394 
527179684194928 1379854344007322807 993.374 
527179747524701 1379854344071440238 993.404 
527179812014247 1379854344134886283 993.474 
527179877755129 1379854344198881645 993.474 
527179938307548 1379854344261534232 993.444 
527179996662499 1379854344325743217 993.34406 
527180115691952 1379854344388731498 993.474 
527180122131751 1379854344453001518 993.444 
527180162632284 1379854344514982719 993.474 
527180228251085 1379854344579283256 993.404 
527180293656242 1379854344642454643 993.50397 
527180363761537 1379854344706663627 993.374 
527180427579637 1379854344770201225 993.404 
527180509465795 1379854344834593314 993.404 
527180543923297 1379854344896727104 993.474 
527180608046598 1379854344960722465 993.404 
527180672200420 1379854345024900932 993.404 
527180748318229 1379854345087980766 993.404 
527180828342645 1379854345151670951 993.474 
527180890482124 1379854345215818900 993.474 
527180957779545 1379854345278929252 993.404 
527181016836466 1379854345342894096 993.474 
527181084835855 1379854345405790824 993.404 
527181143648613 1379854345470030326 993.444 
527181207222549 1379854345533201713 993.404 
527181301499979 1379854345596983451 993.474 
527181308794347 1379854345659758109 993.404 
527181370689662 1379854345723539848 993.34406 
527181435881177 1379854345787535209 993.50397 
527181509099552 1379854345850706596 993.444 
527181584881635 1379854345914549369 993.474 
527181663227431 1379854345978392143 993.444 
527181709893081 1379854346041410941 993.474 
527181778411317 1379854346105886839 993.404 
527181850530956 1379854346168905638 993.404 
527181907207288 1379854346233480833 993.374 
527181970231856 1379854346296987913 993.474 
527182030906358 1379854346360983275 993.474 
527182098325859 1379854346423696898 993.53394 
527182182165322 1379854346487387083 993.404 
527182196937182 1379854346549856566 993.404 
527182260694241 1379854346613851927 993.414 
527182323840891 1379854346676992796 993.404 
527182398829446 1379854346740988157 993.474 
527182468476934 1379854346804769896 993.404 
527182540993340 1379854346868643187 993.474 
527182647875684 1379854346931692503 993.404 
527182677663567 1379854346995779417 993.50397 
527182707573532 1379854347058370970 993.444 
527182770323417 1379854347123251341 993.414 
527182832493417 1379854347185507200 993.414 
527182907878735 1379854347249594114 993.444 
527182972765047 1379854347313131712 993.444 
527183062555982 1379854347377249144 993.474 
527183108428103 1379854347440267943 993.374 
527183181860118 1379854347504324339 993.404 
527183242565139 1379854347567404173 993.414 
527183303392241 1379854347632070921 993.444 
527183371483192 1379854347694723509 993.474 
527183427671197 1379854347758778511 993.374 
527183488772983 1379854347821827827 993.34406 
527183559549726 1379854347886036812 993.374 
527183622574294 1379854347948964058 993.474 
527183688803504 1379854348013264595 993.474 
527183760953663 1379854348077443062 993.50397 
527183810671350 1379854348140309273 993.404 
527183878335015 1379854348203297554 993.444 
527183940688135 1379854348267353950 993.374 
527184002430850 1379854348331715523 993.5639 
527184069880872 1379854348394703804 993.444 
527184140688137 1379854348458851753 993.474 
527184188788243 1379854348521687447 993.444 
527184264143042 1379854348584659955 993.414 
527184318896589 1379854348648777387 993.444 
527184383966024 1379854348711826703 993.474 
527184449249100 1379854348776340863 993.444 
527184510534008 1379854348840763471 993.414 
527184572887129 1379854348903049848 993.474 
527184641069641 1379854348966129682 993.50397 
527184701347376 1379854349030216596 993.474 
527184764127783 1379854349093204877 993.444 
527184832646018 1379854349158787152 993.53394 
527184897837533 1379854349220707318 993.444 
527184957810064 1379854349284458539 993.50397 
527185021780766 1379854349347477338 993.53394 
527185082607867 1379854349411625287 993.444 
527185152011195 1379854349474644086 993.414 
527185208809607 1379854349540073774 993.474 
527185282577347 1379854349601902387 993.50397 
527185332874921 1379854349665867231 993.444 
527185403529582 1379854349728916547 993.444 
527185468537975 1379854349793003461 993.444 
527185538460149 1379854349857059858 993.444 
527185592328606 1379854349920902631 993.474 
527185658496772 1379854349983189008 993.444 
527185719323876 1379854350047489545 993.374 
527185781860119 1379854350110325238 993.374 
527185864600847 1379854350174381635 993.474 
527185909435274 1379854350237791160 993.414 
527185948623432 1379854350301267722 993.53394 
527186011434358 1379854350364378074 993.474 
527186075679743 1379854350428403953 993.444 
527186149539043 1379854350491544822 993.474 
527186230631673 1379854350557157615 993.38403 
527186305223464 1379854350619077781 993.444 
527186351004023 1379854350683195212 993.444 
527186419430697 1379854350746244529 993.444 
527186481844857 1379854350810361960 993.414 
527186549905288 1379854350873380759 993.474 
527186609389494 1379854350937467673 993.444 
527186687216445 1379854351000866368 993.38403 
527186732874922 1379854351065044835 993.444 
527186801423678 1379854351127788975 993.34406 
527186866859356 1379854351191814854 993.444 
527186930707976 1379854351255474522 993.414 
527186989337611 1379854351319836094 993.3141 
527187047845164 1379854351382030919 993.414 
527187112975638 1379854351446117833 993.444 
527187182348443 1379854351509258702 993.444 
527187281570176 1379854351573467686 993.444 
527187295487466 1379854351636150792 993.444 
527187348806557 1379854351699871495 993.38403 
527187409694700 1379854351762920811 993.444 
527187482577348 1379854351827282384 993.444 
527187564310905 1379854351891216710 993.444 
527187628220565 1379854351955090001 993.474 
527187698447942 1379854352018810704 993.414 
527187751675472 1379854352081860020 993.444 
527187822147011 1379854352144939854 993.444 
527187879769474 1379854352208935216 993.444 
527187944106419 1379854352272869542 993.414 
527188009847301 1379854352336437657 993.50397 
527188078701261 1379854352399853184 993.444 
527188138124426 1379854352463146641 993.414 
527188202278249 1379854352526287510 993.414 
527188262372863 1379854352590343907 993.38403 
527188323413606 1379854352653605420 993.444 
527188388513561 1379854352718089063 993.414 
527188450317314 1379854352780680615 993.444 
527188517095889 1379854352844859082 993.444 
527188579662652 1379854352907938916 993.50397 
527188642656701 1379854352971934277 993.50397 
527188707115728 1379854353034983594 993.474 
527188767607105 1379854353099039990 993.474 
527188852423218 1379854353162089307 993.474 
527188872963429 1379854353225993115 993.50397 
527188937361416 1379854353289256055 993.50397 
527189003865306 1379854353353007275 993.474 
527189079647392 1379854353416178662 993.414 
527189158206830 1379854353481409482 993.444 
527189211434359 1379854353543573788 993.50397 
527189277755127 1379854353607660703 993.414 
527189345449314 1379854353671198300 993.414 
527189409481054 1379854353734857968 993.414 
527189471559492 1379854353797998837 993.474 
527189533271686 1379854353862146787 993.474 
527189596418336 1379854353924992612 993.474 
527189661701412 1379854353989079526 993.474 
527189722925279 1379854354052189878 993.50397 
527189786987541 1379854354116246274 993.53394 
527189852606341 1379854354179539731 993.474 
527189912426272 1379854354243382504 993.414 
527189977190501 1379854354306401303 993.414 
527190066584671 1379854354370518735 993.444 
527190080044155 1379854354433140805 993.414 
527190147158455 1379854354497105649 993.38403 
527190207283588 1379854354560246518 993.414 
527190277785647 1379854354624302915 993.53394 
527190345540875 1379854354687504819 993.414 
527190427732237 1379854354751759069 993.53394 
527190486178750 1379854354815022009 993.474 
527190557535381 1379854354879749792 993.444 
527190612777255 1379854354942219274 993.444 
527190679983114 1379854355006367224 993.474 
527190740962819 1379854355069355505 993.50397 
527190804170510 1379854355133411901 993.38403 
527190870369197 1379854355196888464 993.50397 
527190937147772 1379854355261280554 993.414 
527190997761231 1379854355323566931 993.444 
527191070155555 1379854355387867468 993.53394 
527191124970143 1379854355450855749 993.444 
527191189123967 1379854355515583532 993.474 
527191251232925 1379854355579182165 993.414 
527191321307699 1379854355641956823 993.414 
527191351858591 1379854355704548376 993.414 
527191417324791 1379854355770039099 993.414 
527191478457097 1379854355831654089 993.50397 
527191549661125 1379854355896992224 993.414 
527191629014093 1379854355958820837 993.354 
527191701744140 1379854356023365515 993.53394 
527191757962665 1379854356086933630 993.50397 
527191845891859 1379854356150471228 993.414 
527191861731932 1379854356213062780 993.50397 
527191924024012 1379854356277149694 993.38403 
527191987933672 1379854356341053503 993.444 
527192057550641 1379854356404436872 993.354 
527192137269853 1379854356467638776 993.444 
527192207710873 1379854356532275007 993.414 
527192273177071 1379854356596667096 993.38403 
527192341573226 1379854356660296247 993.474 
527192392267565 1379854356722338483 993.414 
527192461762451 1379854356786425397 993.444 
527192520697292 1379854356849413678 993.474 
527192585980367 1379854356913470075 993.474 
527192651782290 1379854356976916120 993.474 
527192717340050 1379854357041369245 993.474 
527192773436495 1379854357103441999 993.444 
527192841710568 1379854357167650983 993.444 
527192905711790 1379854357230898416 993.50397 
527192973039731 1379854357296144998 993.50397 
527193032737579 1379854357358858621 993.474 
527193098081695 1379854357422518289 993.50397 
527193152133275 1379854357485109842 993.444 
527193224802282 1379854357549257791 993.50397 
527193287185923 1379854357612307108 993.5939 
527193357260698 1379854357676373695 993.50397 
527193409999901 1379854357739484046 993.50397 
527193472963429 1379854357804272865 993.444 
527193540932297 1379854357866559242 993.50397 
527193603132816 1379854357930646156 993.53394 
527193669545148 1379854357994000648 993.474 
527193732264512 1379854358058606361 993.474 
527193797578109 1379854358121228431 993.38403 
527193858283129 1379854358184918617 993.414 
527193921612902 1379854358247906898 993.474 
527193985095277 1379854358311963294 993.5639 
527194049645864 1379854358375165199 993.50397 
527194112700953 1379854358439343665 993.444 
527194172734525 1379854358502254915 993.414 
527194212746735 1379854358565823030 993.50397 
527194276534312 1379854358629696321 993.474 
527194339742004 1379854358692959260 993.474 
527194410579788 1379854358757290315 993.50397 
527194491092529 1379854358820522737 993.5639 
527194553567732 1379854358883724641 993.444 
527194622757415 1379854358947720003 993.50397 
527194681661735 1379854359010921907 993.444 
527194744930466 1379854359074917268 993.53394 
527194812319449 1379854359138485384 993.50397 
527194878151893 1379854359202328157 993.444 
527194933637929 1379854359265102815 993.444 
527195003468540 1379854359329250764 993.474 
527195067072996 1379854359392239046 993.414 
527195140291370 1379854359456844759 993.38403 
527195192481206 1379854359520199251 993.474 
527195253338829 1379854359583523225 993.50397 
527195320605729 1379854359646511507 993.414 
527195382714687 1379854359710598421 993.50397 
527195443602830 1379854359773617219 993.414 
527195510076201 1379854359838161897 993.444 
527195570323415 1379854359900814485 993.444 
527195639665702 1379854359964870882 993.414 
527195699180428 1379854360026028108 993.38403 
527195765073912 1379854360092159700 993.474 
527195831455722 1379854360155299455 993.50397 
527195898112214 1379854360221461565 993.474 
527195942488837 1379854360282557756 993.5639 
