#SysTm EventTmStmp Pressure
313018191312733 1379577525862704755 989.9859 
313018246035761 1379577526053805830 989.6061 
313018279486089 1379577526117007734 990.0758 
313018341747649 1379577526181003095 990.1358 
313018405687829 1379577526244143964 989.9859 
313018467644186 1379577526308169843 989.6361 
313018531309682 1379577526371249677 989.816 
313018595188821 1379577526435306074 989.876 
313018660624499 1379577526498446943 989.95593 
313018726151738 1379577526562350751 989.9859 
313018784354088 1379577526625552656 990.01587 
313018848141667 1379577526689456464 989.9259 
313018911013634 1379577526752658369 989.876 
313018975442140 1379577526816867353 989.876 
313019039626483 1379577526879855634 989.876 
313019102864694 1379577526943789960 989.95593 
313019168208812 1379577527006961347 989.84595 
313019230958697 1379577527070926191 989.876 
313019292884533 1379577527134097578 989.84595 
313019356550029 1379577527198062421 989.876 
313019419757720 1379577527261264326 989.84595 
313019483789462 1379577527325229169 989.816 
313019549408262 1379577527388370039 989.876 
313019615057584 1379577527452365400 989.84595 
313019673839821 1379577527515475751 989.756 
313019738207285 1379577527579684736 989.816 
313019803612444 1379577527642795087 989.9259 
313019865141514 1379577527706607343 989.9259 
313019931950609 1379577527769961835 989.84595 
313019994303730 1379577527833774091 989.876 
313020066362328 1379577527897067548 989.876 
313020120963276 1379577527961001874 989.95593 
313020182614427 1379577528024081708 989.9859 
313020247622821 1379577528089012268 990.01587 
313020312417571 1379577528151573303 989.95593 
313020376510353 1379577528215690735 989.95593 
313020439901166 1379577528278892639 989.95593 
313020504695916 1379577528342643860 989.95593 
313020564393765 1379577528405998352 989.9859 
313020628059262 1379577528469810608 989.9859 
313020692823491 1379577528532951477 989.95593 
313020756275346 1379577528597221496 989.9859 
313020821741544 1379577528660118225 989.9859 
313020891846840 1379577528724296692 989.84595 
313020946295184 1379577528788078430 989.816 
313021010204844 1379577528851158264 989.9259 
313021073565136 1379577528914573791 989.95593 
313021137047512 1379577528978355530 989.9259 
313021200468845 1379577529041710022 989.9859 
313021263951219 1379577529105491760 989.9859 
313021327128390 1379577529168663147 990.01587 
313021391251693 1379577529232841613 989.9259 
313021454123660 1379577529295799377 989.95593 
313021518338522 1379577529359947326 989.95593 
313021581332572 1379577529422935608 989.95593 
313021645242231 1379577529486900451 989.876 
313021710891552 1379577529550254944 989.876 
313021774434967 1379577529614311340 989.786 
313021835841956 1379577529677508709 989.876 
313021899843178 1379577529741473552 989.876 
313021962684624 1379577529804431316 989.9859 
313022027357293 1379577529868609783 989.95593 
313022092426727 1379577529931537029 989.95593 
313022155207132 1379577529996661541 989.9259 
313022217224530 1379577530058856365 989.95593 
313022288459078 1379577530122668621 989.95593 
313022344402921 1379577530185962078 989.9259 
313022408251540 1379577530249804851 989.84595 
313022471611832 1379577530312945720 989.9259 
313022535185769 1379577530376880047 989.9259 
313022617010887 1379577530440020916 989.9259 
313022682232922 1379577530504290935 990.04584 
313022745898419 1379577530567218181 989.84595 
313022810449007 1379577530631152507 989.9259 
313022873900861 1379577530694476482 989.876 
313022933324026 1379577530758258220 989.84595 
313022991678977 1379577530821612713 989.9259 
313023049057277 1379577530885394451 990.01587 
313023109945420 1379577530948535320 989.9859 
313023194944657 1379577531012744304 989.95593 
313023255680198 1379577531075732586 989.9859 
313023314035150 1379577531139880535 989.816 
313023373458315 1379577531203021404 989.9859 
313023432576277 1379577531266833660 989.9859 
313023506984944 1379577531330157634 989.9859 
313023574587569 1379577531393969890 989.9259 
313023635414671 1379577531457171795 989.84595 
313023697706750 1379577531521258709 989.9859 
313023775503180 1379577531584277507 989.9859 
313023811913984 1379577531648425457 990.04584 
313023873259933 1379577531711383220 989.9859 
313023942022332 1379577531775348064 989.9259 
313024007152806 1379577531838733074 989.9859 
313024078387356 1379577531902575847 990.04584 
313024146417265 1379577531965838787 989.9859 
313024188047053 1379577532029620525 989.95593 
313024259342642 1379577532092791912 989.9859 
313024328898572 1379577532156817791 989.876 
313024390885448 1379577532219989177 989.9859 
313024452628161 1379577532284137127 989.9259 
313024505581007 1379577532347094890 990.0758 
313024569582227 1379577532411090252 989.9859 
313024632973041 1379577532474414226 990.01587 
313024696760619 1379577532538226482 990.04584 
313024768514015 1379577532601550457 989.84595 
313024824091613 1379577532665393230 989.84595 
313024887665547 1379577532728747722 989.9859 
313024953436950 1379577532792743084 989.95593 
313025014721858 1379577532855700847 989.816 
313025078417877 1379577532920176187 989.9259 
313025141717128 1379577532983347574 989.9259 
313025205382624 1379577533047159830 989.9259 
313025269139681 1379577533110514322 989.876 
313025332591536 1379577533174296060 989.9259 
313025395707668 1379577533237436929 989.876 
313025459769929 1379577533301615396 989.95593 
313025522641895 1379577533364542642 989.84595 
313025612432830 1379577533428507486 990.01587 
313025675243757 1379577533491678872 990.01587 
313025714157233 1379577533555613199 989.95593 
313025783011192 1379577533618967691 989.95593 
313025849179358 1379577533682749429 989.95593 
313025904268631 1379577533746073404 989.876 
313025972390101 1379577533809946695 989.876 
313026031294422 1379577533873118081 989.9859 
313026096608018 1379577533938273111 989.9259 
313026158503332 1379577534000254312 989.9859 
313026222412992 1379577534064219156 989.9259 
313026286017447 1379577534127360025 989.9259 
313026351636249 1379577534191385904 989.876 
313026414355613 1379577534254709878 989.95593 
313026503597183 1379577534318491617 989.876 
313026540069027 1379577534381663003 989.876 
313026604344932 1379577534445841470 989.95593 
313026667277939 1379577534508829751 989.9259 
313026731401242 1379577534573190056 990.01587 
313026794944657 1379577534636208854 989.9859 
313026858365990 1379577534700143181 989.876 
313026922153569 1379577534763467155 989.84595 
313026986917799 1379577534827279411 990.01587 
313027048599471 1379577534890542351 989.816 
313027112631213 1379577534954354606 989.9859 
313027175655781 1379577535017495476 989.9259 
313027239870646 1379577535081704460 990.01587 
313027302864693 1379577535144753776 989.9259 
313027370864083 1379577535208840690 989.9259 
313027434285417 1379577535271859489 989.95593 
313027494502111 1379577535335793815 989.9259 
313027558045526 1379577535399254460 989.9859 
313027621192178 1379577535463005680 989.95593 
313027684521950 1379577535526360172 989.9859 
313027752124575 1379577535590263981 989.84595 
313027811944504 1379577535653313297 989.95593 
313027875854163 1379577535717552799 990.01587 
313027938695611 1379577535780480045 990.01587 
313028002940994 1379577535844638256 990.01587 
313028066057124 1379577535907809642 989.95593 
313028129814181 1379577535971591381 990.01587 
313028198088254 1379577536034884838 990.01587 
313028257145176 1379577536098727611 990.0758 
313028320139224 1379577536161929515 989.95593 
313028384384609 1379577536226077465 989.9859 
313028447256575 1379577536289035228 989.9859 
313028511990285 1379577536353274730 990.01587 
313028574709650 1379577536416171459 989.876 
313028638436187 1379577536480166820 989.95593 
313028704085508 1379577536543521312 989.95593 
313028767171118 1379577536607211498 989.9259 
313028856992574 1379577536670672119 989.9859 
313028898042475 1379577536734453857 989.9859 
313028966560710 1379577536797655762 989.95593 
313029030317769 1379577536861803711 990.01587 
313029091022789 1379577536924761475 989.9259 
313029154840888 1379577536988939941 989.9859 
313029214569256 1379577537052385986 989.95593 
313029274083982 1379577537115933839 989.95593 
313029351392085 1379577537179318849 990.01587 
313029401353935 1379577537243070069 990.01587 
313029478784120 1379577537306271974 989.9859 
313029545654255 1379577537370358888 989.9259 
313029607000205 1379577537433347169 989.876 
313029661631671 1379577537497586671 989.95593 
313029718918409 1379577537560727540 989.876 
313029782492345 1379577537624417726 989.84595 
313029845913678 1379577537687772218 989.9259 
313029910738949 1379577537752103273 989.9259 
313029973092069 1379577537814908448 989.876 
313030038253065 1379577537878781739 989.80597 
313030099965257 1379577537941967721 989.84595 
313030164332724 1379577538006146188 989.95593 
313030237978381 1379577538069134469 989.9859 
313030292335165 1379577538133312936 989.9259 
313030354505163 1379577538196301217 989.84595 
313030419238873 1379577538260998483 989.9259 
313030481714075 1379577538323529000 989.876 
313030545623735 1379577538387371774 989.84595 
313030609991199 1379577538450634713 989.9259 
313030672771606 1379577538514569039 989.876 
313030736589704 1379577538577709908 989.95593 
313030800621445 1379577538641857858 990.01587 
313030863279770 1379577538704815621 989.876 
313030927067347 1379577538768780465 989.95593 
313030990366601 1379577538832012887 989.95593 
313031054337300 1379577538895916695 989.876 
313031118796327 1379577538959271188 989.876 
313031181363090 1379577539023052926 989.9859 
313031244540261 1379577539086224313 990.01587 
313031309548655 1379577539150433297 989.95593 
313031371840735 1379577539213391061 989.95593 
313031435964036 1379577539277539010 989.876 
313031498927565 1379577539340496774 989.9259 
313031562806705 1379577539404461617 989.95593 
313031626289079 1379577539467846627 989.876 
313031689985096 1379577539531628365 989.95593 
313031753131746 1379577539595037797 989.9859 
313031817041405 1379577539658850053 989.9259 
313031880401700 1379577539722051957 989.95593 
313031944555521 1379577539786230424 989.95593 
313032007427489 1379577539849218705 989.95593 
313032071520270 1379577539913336137 989.876 
313032134819522 1379577539976477006 989.9259 
313032204955339 1379577540040380814 989.876 
313032264195381 1379577540103582719 989.9859 
313032329356376 1379577540167364457 990.01587 
313032389847753 1379577540230596879 989.9259 
313032454611984 1379577540294744828 989.95593 
313032515866372 1379577540357777257 989.9859 
313032580111755 1379577540421925206 989.9859 
313032642953202 1379577540484913487 989.95593 
313032709701255 1379577540548878331 989.9859 
313032778646778 1379577540612171788 989.9259 
313032836696525 1379577540676014561 989.9259 
313032898652881 1379577540739399571 989.95593 
313032961189124 1379577540803120274 989.95593 
313033024488377 1379577540866352696 990.01587 
313033088611679 1379577540930470128 989.9259 
313033151788850 1379577540993427892 989.95593 
313033216125794 1379577541057728429 989.9859 
313033279180884 1379577541120655675 989.9259 
313033345837378 1379577541184590001 989.95593 
313033410174322 1379577541247913976 989.9259 
313033473198891 1379577541311695714 989.9859 
313033539794343 1379577541374958653 989.95593 
313033597081082 1379577541438862462 989.9859 
313033669780610 1379577541502003331 989.83594 
313033724656239 1379577541566242833 989.9259 
313033787345084 1379577541629139561 989.9859 
313033849911846 1379577541691761632 989.9859 
313033917575512 1379577541756336827 989.95593 
313033979501348 1379577541820271153 990.01587 
313034042098631 1379577541883656163 989.9859 
313034105703086 1379577541947437901 989.95593 
313034169277023 1379577542010725267 989.95593 
313034233034080 1379577542074873217 989.876 
313034295875527 1379577542137800463 989.876 
313034360120911 1379577542201978930 989.95593 
313034423145479 1379577542264997728 989.9259 
313034487177222 1379577542328962572 989.876 
313034551697289 1379577542392317064 989.876 
313034614325092 1379577542456129320 989.95593 
313034677899028 1379577542519575365 989.876 
313034741534004 1379577542583357103 989.9259 
313034804650135 1379577542646375902 989.95593 
313034871031944 1379577542710523851 989.95593 
313034934789001 1379577542773647874 989.9859 
313034995890787 1379577542837551682 989.876 
313035058396510 1379577542900082200 989.876 
313035122886058 1379577542964718430 989.95593 
313035186307391 1379577543028072923 989.83594 
313035250674855 1379577543091915696 989.876 
313035314187750 1379577543155026048 989.876 
313035378097411 1379577543219235032 989.876 
313035440389491 1379577543282162278 989.9259 
313035504665394 1379577543346340745 990.0758 
313035567567881 1379577543409298509 989.876 
313035631538583 1379577543473324388 989.95593 
313035695936568 1379577543536648362 990.01587 
313035758716974 1379577543600430100 989.95593 
313035822138308 1379577543663754075 989.876 
313035885834326 1379577543727535813 989.95593 
313035949072536 1379577543790707200 989.9259 
313036013073756 1379577543854702561 989.9259 
313036076189888 1379577543917873948 989.876 
313036140374230 1379577543982021897 989.876 
313036203337758 1379577544044979661 989.876 
313036267216897 1379577544108913987 990.01587 
313036330790832 1379577544172298997 990.01587 
313036394456330 1379577544236111253 989.876 
313036457602980 1379577544299313157 990.04584 
313036521695763 1379577544363278001 990.0758 
313036584720331 1379577544426534837 990.04584 
313036648935194 1379577544490713304 990.01587 
313036711959764 1379577544553701585 989.95593 
313036776083065 1379577544617819017 990.04584 
313036839321277 1379577544680990404 989.95593 
313036903658222 1379577544744863695 989.876 
313036966316546 1379577544808065599 990.01587 
313037030226206 1379577544871908373 989.95593 
313037093433897 1379577544935140794 989.876 
313037157526680 1379577544999227708 989.9859 
313037220490207 1379577545062215990 989.95593 
313037284796633 1379577545126424974 989.876 
313037347638079 1379577545189426888 989.876 
313037411578258 1379577545253422250 989.876 
313037475121673 1379577545316746224 989.86597 
313037538787170 1379577545380558480 989.95593 
313037602208504 1379577545443882455 989.95593 
313037666148684 1379577545507908333 989.95593 
313037729020651 1379577545570866097 989.9259 
313037793388117 1379577545635044564 989.95593 
313037893830662 1379577545697971810 989.9259 
313037952765501 1379577545763218392 989.83594 
313037983499516 1379577545825169076 990.01587 
313038047775419 1379577545889011849 989.876 
313038113577343 1379577545952366341 990.01587 
313038201628616 1379577546016544808 989.95593 
313038237520576 1379577546079411019 989.95593 
313038302071162 1379577546143497933 989.80597 
313038372786866 1379577546206516732 990.1658 
313038430165166 1379577546270695199 989.9259 
313038492152041 1379577546333622445 989.9859 
313038555939619 1379577546397617806 989.9859 
313038619238872 1379577546460789193 989.74603 
313038683026450 1379577546524754037 989.9259 
313038746508824 1379577546588139046 989.95593 
313038810967851 1379577546651890267 990.10583 
313038874480745 1379577546715763558 989.83594 
313038937596877 1379577546779240121 989.876 
313039001140291 1379577546842374916 989.876 
313039086231090 1379577546906522865 989.95593 
313039151697288 1379577546969633217 989.876 
313039220551248 1379577547033445473 989.876 
313039258304948 1379577547096769448 989.80597 
313039327494632 1379577547160551186 989.876 
313039394608932 1379577547223875160 989.83594 
313039470726740 1379577547287901039 989.9859 
313039525571850 1379577547350919838 989.9259 
313039574648608 1379577547415037270 989.9259 
313039647592297 1379577547478178139 989.9259 
313039700178899 1379577547542112465 989.876 
313039763539191 1379577547605480602 989.9259 
313039827448852 1379577547669262340 989.876 
313039891144868 1379577547732616832 989.876 
313039975381096 1379577547796459605 989.83594 
313040026899486 1379577547859569957 989.9259 
313040093342336 1379577547924663951 989.9859 
313040159724146 1379577547986706187 989.876 
313040210876289 1379577548050833912 989.9859 
313040272557962 1379577548113852711 989.95593 
313040336009817 1379577548177787037 989.876 
313040399278548 1379577548240958424 989.9259 
313040463127167 1379577548304953785 989.9259 
313040526640061 1379577548368125172 989.876 
313040590427640 1379577548432120533 989.95593 
313040657206215 1379577548495261402 989.9859 
313040718185919 1379577548559226246 989.9259 
313040780630601 1379577548622428150 989.876 
313040844601300 1379577548686362477 989.9259 
313040907778472 1379577548749533863 989.83594 
313040972084896 1379577548813498707 989.876 
313041036208198 1379577548876745678 989.80597 
313041098958084 1379577548940741039 989.80597 
313041162074214 1379577549003881908 989.95593 
313041226014394 1379577549067846752 989.9259 
313041289283126 1379577549130987621 989.9259 
313041353223306 1379577549194982982 989.9259 
313041416430997 1379577549258184887 989.9259 
313041480401699 1379577549322119213 989.6261 
313041543426267 1379577549385260082 989.95593 
313041607488528 1379577549449255443 989.95593 
313041670726739 1379577549512457348 989.80597 
313041734636399 1379577549576361156 989.876 
313041799156467 1379577549639624096 989.876 
313041865202552 1379577549703863598 990.01587 
313041924991962 1379577549766729809 989.95593 
313041989664630 1379577549830664135 990.10583 
313042052048271 1379577549893805004 989.9259 
313042116202095 1379577549957830883 989.95593 
313042179287704 1379577550021002270 990.1358 
313042243197364 1379577550084936596 989.95593 
313042306344013 1379577550148107982 989.876 
313042370925121 1379577550212072826 989.9259 
313042433583447 1379577550275274731 989.95593 
313042514004627 1379577550339666820 989.65607 
313042591709495 1379577550402807689 989.83594 
313042679058801 1379577550466864086 989.86597 
313042700697744 1379577550529632763 989.86597 
313042751636247 1379577550593628125 989.86597 
313042819574595 1379577550656799511 989.83594 
313042893494937 1379577550720855908 989.95593 
313042955725976 1379577550784332470 989.95593 
313043019421993 1379577550848358349 989.86597 
313043106954421 1379577550911499218 989.9259 
313043136559182 1379577550975128369 989.95593 
313043200041557 1379577551038360791 989.86597 
313043260166691 1379577551102142529 989.9259 
313043323343861 1379577551165313916 989.86597 
313043404405970 1379577551229431347 989.9259 
313043483423213 1379577551293135615 989.86597 
313043518338521 1379577551356947871 989.9259 
313043577944807 1379577551419966669 989.95593 
313043642342793 1379577551484114619 989.9259 
313043718124877 1379577551546828242 989.9259 
313043799919477 1379577551611647578 989.9259 
313043859953048 1379577551674574824 989.86597 
313043924106870 1379577551738631220 990.10583 
313043997203162 1379577551801894160 989.86597 
313044060807620 1379577551866835566 989.9259 
313044119406734 1379577551928847285 989.83594 
313044185239176 1379577551993056269 989.86597 
313044216125793 1379577552055403681 989.83594 
313044279638688 1379577552120314570 989.9259 
313044340923596 1379577552182784052 989.9259 
313044419147309 1379577552246443720 989.9259 
313044494868355 1379577552310469599 989.83594 
313044559571543 1379577552374251337 989.83594 
313044620581767 1379577552437422724 989.9859 
313044700148380 1379577552501387568 989.83594 
313044746600386 1379577552564406367 989.86597 
313044807824252 1379577552628828974 989.83594 
313044874267102 1379577552691542597 989.83594 
313044946508823 1379577552755965205 989.9259 
313045012493869 1379577552818739863 989.86597 
313045068193548 1379577552882796259 989.776 
313045134483797 1379577552946179968 989.83594 
313045192411463 1379577553010144811 989.83594 
313045279028281 1379577553073224645 989.9259 
313045309426572 1379577553136640173 989.9259 
313045357740322 1379577553199720007 989.9259 
313045423084438 1379577553263867956 989.9259 
313045486383691 1379577553326856237 989.9259 
