#SysTm EventTmStmp Pressure
272612124415126 1378817671164048774 997.54175 
272612133113432 1378817671228013618 997.54175 
272612142513706 1378817671482300165 997.69165 
272612217136017 1378817671545502069 997.9215 
272612266914745 1378817671609497431 997.6617 
272612329267865 1378817671672668817 997.5717 
272612394489901 1378817671736674419 997.69165 
272612454431912 1378817671800089946 997.5717 
272612520600079 1378817671863780132 997.6617 
272612581701866 1378817671926951518 997.5717 
272612651257793 1378817671990916362 997.5018 
272612711749172 1378817672054057231 997.54175 
272612772362630 1378817672118022075 997.6317 
272612835661883 1378817672181193462 997.69165 
272612902287857 1378817672245188823 997.6317 
272612962840275 1378817672308421245 997.5717 
272613026749934 1378817672372325054 997.6317 
272613089927104 1378817672435526958 997.33185 
272613154264050 1378817672499858013 997.54175 
272613217593822 1378817672562738819 997.6617 
272613281045677 1378817672626673145 997.54175 
272613345565744 1378817672689814015 997.54175 
272613408498751 1378817672753839894 997.5717 
272613471370719 1378817672816980763 997.6317 
272613535524541 1378817672881006642 997.69165 
272613599098477 1378817672944147511 997.6317 
272613663099698 1378817673008692188 997.53174 
272613726185307 1378817673071283741 997.5717 
272613789637162 1378817673135248585 997.6317 
272613853577341 1378817673198419972 997.53174 
272613917120757 1378817673262384815 997.53174 
272613980694692 1378817673325556202 997.6617 
272614043932904 1378817673389521046 997.74164 
272614107140594 1378817673452692433 997.6617 
272614171111295 1378817673516657276 997.5018 
272614234471590 1378817673579798145 997.69165 
272614298228647 1378817673643762989 997.6617 
272614362535071 1378817673706964894 997.6317 
272614425773281 1378817673770929737 997.6617 
272614488553687 1378817673834070606 997.53174 
272614552615951 1378817673898065968 997.53174 
272614616067804 1378817673961237354 997.69165 
272614680496310 1378817674025202198 997.53174 
272614743337756 1378817674088343067 997.6617 
272614806850650 1378817674152338429 997.6317 
272614884372398 1378817674215813754 997.69165 
272614950174320 1378817674280114291 997.6617 
272615009872168 1378817674343133090 997.69165 
272615077169589 1378817674407189487 997.6617 
272615140438322 1378817674470330356 997.6317 
272615203951216 1378817674534356235 997.69165 
272615268501803 1378817674597436069 997.6317 
272615332899788 1378817674661461948 997.69165 
272615423056968 1378817674724602817 997.69165 
272615478146242 1378817674788140414 997.69165 
272615520203314 1378817674851342319 997.6617 
272615584784423 1378817674915276645 997.6317 
272615650372702 1378817674978448032 997.69165 
272615707628920 1378817675042458078 997.6617 
272615782922679 1378817675105659983 997.6317 
272615852814333 1378817675169594309 997.6617 
272615915716819 1378817675232765696 997.6317 
272615976299760 1378817675297249338 997.69165 
272616034227425 1378817675360359690 997.53174 
272616127894449 1378817675424446604 997.6317 
272616147641130 1378817675487038156 997.5717 
272616208315629 1378817675550941965 997.6317 
272616272469452 1378817675614143869 997.6317 
272616336836916 1378817675678139231 997.6317 
272616411978073 1378817675741707346 997.6617 
272616473751308 1378817675805763742 997.5717 
272616537508365 1378817675868935129 997.53174 
272616602730402 1378817675932930490 997.5717 
272616650891549 1378817675995644114 997.6317 
272616719013019 1378817676059547922 997.5717 
272616779718041 1378817676122719309 997.5018 
272616855194921 1378817676186653635 997.53174 
272616904210639 1378817676249825022 997.5717 
272616968150818 1378817676313820383 997.5018 
272617035081995 1378817676376991770 997.53174 
272617093864233 1378817676439339182 997.5617 
272617162351948 1378817676504158518 997.6617 
272617226170048 1378817676568092844 997.7117 
272617315136932 1378817676631691477 997.5617 
272617363755886 1378817676695924887 997.6617 
272617412802124 1378817676758546957 997.6617 
272617476986466 1378817676822511801 997.5617 
272617543124113 1378817676885683188 997.7117 
272617632304641 1378817676949678549 997.69165 
272617693986315 1378817677013185629 997.6617 
272617731129608 1378817677076814779 997.53174 
272617794215216 1378817677139955649 997.6317 
272617858216438 1378817677203920492 997.5018 
272617931434811 1378817677267122397 997.53174 
272618002913524 1378817677331056723 997.53174 
272618073324022 1378817677394655356 997.7117 
272618143368278 1378817677458878402 997.5018 
272618204378502 1378817677521927719 997.5018 
272618239660052 1378817677585495834 997.6617 
272618301952131 1378817677647751693 997.53174 
272618366838444 1378817677712662582 997.53174 
272618442742609 1378817677775803451 997.6317 
272618506835390 1378817677839798812 997.6317 
272618585700033 1378817677903316063 997.6617 
272618650525303 1378817677967525047 997.6617 
272618693436948 1378817678030513329 997.6617 
272618748282057 1378817678094020409 997.69165 
272618811398186 1378817678157161278 997.6617 
272618875368887 1378817678221095604 997.6617 
272618972576272 1378817678284328026 997.6317 
272619004836306 1378817678348231834 997.6617 
272619072530492 1378817678411494774 997.6617 
272619141201329 1378817678475429100 997.6317 
272619208895516 1378817678538600487 997.6617 
272619271309677 1378817678602565330 997.7117 
272619338698660 1378817678665767235 997.7716 
272619396321122 1378817678729776979 997.6617 
272619461817841 1378817678792948365 997.7117 
272619523774197 1378817678857279420 997.6617 
272619585608472 1378817678920603395 997.5617 
272619656049491 1378817678984720826 997.6617 
272619722004015 1378817679048990846 997.6317 
272619785425350 1378817679111887574 997.6317 
272619844848514 1378817679174814820 997.7117 
272619909368582 1378817679238932252 997.6617 
272619966930003 1378817679302073121 997.6617 
272620035112515 1378817679365458131 997.5018 
272620099937787 1378817679429117799 997.5617 
272620166746881 1378817679493235230 997.53174 
272620226994097 1378817679557444215 997.7117 
272620292368733 1378817679620371461 997.6617 
272620354752375 1378817679683390260 997.69165 
272620418051628 1378817679747538209 997.6317 
272620480252146 1378817679810557008 997.5617 
272620543856602 1378817679874552369 997.6317 
272620608834474 1378817679937784791 997.5617 
272620672774654 1378817680001749635 997.6317 
272620740194158 1378817680064859986 997.5617 
272620802455717 1378817680128885865 997.53174 
272620866090693 1378817680191904664 997.6317 
272620927222999 1378817680257456422 997.6317 
272621000471892 1378817680319132447 997.5018 
272621065327684 1378817680383340159 997.5617 
272621128840578 1378817680446450510 997.6617 
272621195497072 1378817680510476389 997.6617 
272621318311051 1378817680573464670 997.5617 
272621354538732 1378817680700143137 997.6617 
272621419852329 1378817680765450754 997.6317 
272621488950452 1378817680827370920 997.7117 
272621545626783 1378817680891244211 997.6317 
272621624857670 1378817680954568186 997.6617 
272621688919932 1378817681018929758 997.5617 
272621751028889 1378817681082009592 997.53174 
272621818753595 1378817681146096506 997.6317 
272621882968460 1378817681209130099 997.6617 
272621941689656 1378817681273186496 997.53174 
272622005843478 1378817681336296847 997.6617 
272622071248636 1378817681400322726 997.6317 
272622137020038 1378817681463677218 997.53174 
272622181274579 1378817681527001193 997.5617 
272622244451749 1378817681590142062 997.6317 
272622308636093 1378817681654106906 997.69165 
272622380908333 1378817681717278292 997.69165 
272622450922068 1378817681781761935 997.53174 
272622517456480 1378817681844872287 997.5617 
272622579687519 1378817681908898166 997.69165 
272622641857518 1378817681973107150 997.5018 
272622706926952 1378817682035973361 997.53174 
272622753165315 1378817682098686984 997.6317 
272622828642197 1378817682162651828 997.5617 
272622896366902 1378817682226219943 997.5617 
272622949380789 1378817682289757541 997.6317 
272623011306625 1378817682352959445 997.6317 
272623104637923 1378817682417412570 997.69165 
272623134456328 1378817682480095675 997.6617 
272623198884833 1378817682544060519 997.69165 
272623261634720 1378817682607231906 997.5617 
272623331495851 1378817682672020724 997.5617 
272623413015765 1378817682734551242 997.5617 
272623452722770 1378817682798332980 997.6617 
272623516937633 1378817682861716363 997.6617 
272623580084284 1378817682925742242 997.5617 
272623654065665 1378817682988852593 997.6617 
272623722187139 1378817683052817437 997.7117 
272623793116483 1378817683116385552 997.69165 
272623834135863 1378817683179923150 997.6617 
272623897374075 1378817683243155572 997.69165 
272623961344776 1378817683307089898 997.53174 
272624035051474 1378817683370291802 997.5617 
272624106102900 1378817683434256646 997.6317 
272624174438014 1378817683497794244 997.6317 
272624247137543 1378817683561911675 997.69165 
272624278848210 1378817683624564263 997.6317 
272624342818909 1378817683688543773 997.7117 
272624405965559 1378817683751684642 997.7117 
272624481106717 1378817683815649486 997.5018 
272624545107937 1378817683878881908 997.6317 
272624625345995 1378817683943273997 997.6617 
272624660261302 1378817684005957103 997.69165 
272624724201481 1378817684069891429 997.6317 
272624787378654 1378817684133093333 997.6317 
272624854523472 1378817684197058177 997.5018 
272624945016376 1378817684260504222 997.5018 
272624978558266 1378817684324255443 997.5018 
272625041674396 1378817684387335277 997.5617 
272625105645096 1378817684451330638 997.53174 
272625175628310 1378817684514502025 997.6317 
272625260719108 1378817684578649974 997.6617 
272625295970137 1378817684641638255 997.6317 
272625359971358 1378817684705603099 997.6617 
272625423118010 1378817684768774486 997.4718 
272625498716972 1378817684832769847 997.6317 
272625564274731 1378817684895971751 997.6317 
272625632060477 1378817684959906078 997.53174 
272625705950300 1378817685023474193 997.5617 
272625741445492 1378817685087042308 997.6317 
272625804561621 1378817685150183177 997.6617 
272625868532323 1378817685214117503 997.5617 
272625941903298 1378817685277319408 997.6317 
272626007461057 1378817685341618944 997.6617 
272626102928782 1378817685404637743 997.6317 
272626147152803 1378817685469151903 997.74164 
272626190919016 1378817685531835009 997.6317 
272626256965101 1378817685595769335 997.6317 
272626377886816 1378817685658940721 997.5617 
272626386920847 1378817685722936083 997.53174 
272626440331499 1378817685786107469 997.53174 
272626504271680 1378817685850072313 997.6317 
272626567540412 1378817685913243700 997.5617 
272626664534155 1378817685977361132 997.53174 
272626694596721 1378817686040379930 997.6317 
272626758720025 1378817686104283739 997.53174 
272626821775114 1378817686167530508 997.6317 
272626894871406 1378817686231495352 997.53174 
272626961680502 1378817686294697256 997.53174 
272627026078487 1378817686358662100 997.5617 
272627105645097 1378817686421802969 997.5617 
272627150601605 1378817686486256094 997.5617 
272627203188206 1378817686548939199 997.6317 
272627267647233 1378817686613422842 997.6317 
272627330336077 1378817686676044912 997.6317 
272627422660202 1378817686740070791 997.6317 
272627458460599 1378817686803211660 997.53174 
272627521454648 1378817686867176504 997.5617 
272627584723381 1378817686930317373 997.5617 
272627655744287 1378817686994312734 997.53174 
272627727253519 1378817687057514639 997.5617 
272627807094812 1378817687121906729 997.69165 
272627838988603 1378817687184620352 997.53174 
272627902867743 1378817687248554678 997.6617 
272627966136475 1378817687311817617 997.53174 
272628041399713 1378817687375721426 997.6317 
272628105217811 1378817687438923330 997.5617 
272628183441525 1378817687502888174 997.5617 
272628220371175 1378817687566029043 997.5018 
272628284341875 1378817687629993887 997.6317 
272628347549567 1378817687693165273 997.4118 
272628426475249 1378817687757191152 997.6617 
272628475765651 1378817687821607681 997.5018 
272628538759700 1378817687884382340 997.53174 
272628601814788 1378817687947614761 997.6317 
272628672103206 1378817688011549088 997.5617 
272628754050406 1378817688074842545 997.6317 
272628794398337 1378817688139082047 997.4718 
272628856110532 1378817688201887222 997.5617 
272628920142272 1378817688265882584 997.69165 
272628985333787 1378817688329023453 997.53174 
272629091300520 1378817688393476578 997.6317 
272629117731162 1378817688456159683 997.53174 
272629177520573 1378817688520032974 997.6617 
272629240880865 1378817688583279034 997.6617 
272629309032856 1378817688647243878 997.53174 
272629375231543 1378817688710781475 997.6317 
272629487424432 1378817688774868389 997.53174 
272629508788693 1378817688837978741 997.6317 
272629555851107 1378817688901577374 997.53174 
272629618967237 1378817688964687725 997.6317 
272629682998979 1378817689028683087 997.53174 
272629753470519 1378817689091762920 997.6317 
272629824094659 1378817689155910870 997.69165 
272629905858737 1378817689219112774 997.6617 
272629937233680 1378817689282894512 997.69165 
272630001509585 1378817689346096417 997.5617 
272630064381551 1378817689410030743 997.5617 
272630138668138 1378817689473232647 997.6617 
272630191529422 1378817689537197491 997.53174 
272630254737115 1378817689600368878 997.69165 
272630318982499 1378817689664333721 997.5018 
272630392841799 1378817689727596661 997.6617 
272630460932749 1378817689791500469 997.6317 
272630524048879 1378817689854671856 997.6617 
272630589972883 1378817689918636700 997.6317 
272630665724448 1378817689982174297 997.4718 
272630700212469 1378817690045742413 997.6317 
272630763328599 1378817690108913799 997.6617 
272630827268779 1378817690172817608 997.6317 
272630902257333 1378817690236323574 997.5617 
272630966838441 1378817690300318936 997.6317 
272631054218268 1378817690363429287 997.5617 
272631114221319 1378817690427607754 997.53174 
272631183685687 1378817690490565518 997.6317 
272631212802122 1378817690554530362 997.6317 
272631312542699 1378817690617701748 997.5617 
272631335890784 1378817690681666592 997.5018 
272631405904519 1378817690744837979 997.5617 
272631471218115 1378817690808924893 997.6317 
272631553531559 1378817690872004727 997.6317 
272631614846986 1378817690936701992 997.5018 
272631684555518 1378817690999537686 997.5617 
272631717395438 1378817691063089787 997.5018 
272631780542089 1378817691126230656 997.5018 
272631844512788 1378817691190195500 997.6317 
272631918951977 1378817691253366887 997.5018 
272631986218877 1378817691317331730 997.6317 
272632047931070 1378817691380503117 997.5617 
272632114892768 1378817691444559514 997.53174 
272632192200870 1378817691508036076 997.5018 
272632253974104 1378817691572092473 997.5018 
272632289072532 1378817691634745060 997.6617 
272632353104273 1378817691698740422 997.5018 
272632416250925 1378817691761911808 997.5617 
272632489621899 1378817691825907170 997.5018 
272632559238868 1378817691889078557 997.5018 
272632628367512 1378817691953012883 997.4718 
272632693406425 1378817692016580998 997.6317 
272632734547887 1378817692080149113 997.6217 
272632797755577 1378817692143320500 997.53174 
272632861695759 1378817692207285344 997.53174 
272632930427636 1378817692270456730 997.4718 
272633013168368 1378817692334909855 997.6317 
272633051990281 1378817692397592961 997.6617 
272633115960980 1378817692461557805 997.53174 
272633179229711 1378817692524729191 997.5617 
272633246160890 1378817692588694035 997.6317 
272633340316237 1378817692652018010 997.6217 
272633402425194 1378817692716587127 997.5018 
272633465724447 1378817692779636444 997.6317 
272633497618236 1378817692843204559 997.5617 
272633560612286 1378817692906375946 997.6217 
272633624521945 1378817692970310272 997.6217 
272633700944956 1378817693033542694 997.4718 
272633764915657 1378817693097507538 997.53174 
272633828184390 1378817693160678924 997.5617 
272633909643264 1378817693225223602 997.6217 
272633966716359 1378817693288272918 997.6617 
272634006026598 1378817693351749481 997.5617 
272634069203769 1378817693414920868 997.53174 
272634133174471 1378817693478868819 997.6217 
272634205873997 1378817693542070724 997.6617 
272634272988296 1378817693606035567 997.53174 
272634353165314 1378817693669573165 997.53174 
272634412252756 1378817693733629562 997.6217 
272634483914589 1378817693796709396 997.69165 
272634514984328 1378817693860674239 997.53174 
272634578192019 1378817693923479415 997.7117 
272634641704914 1378817693987383224 997.5617 
272634710162111 1378817694050554610 997.5617 
272634794703542 1378817694114672042 997.5617 
272634832060477 1378817694177721358 997.5617 
272634896031178 1378817694241655685 997.69165 
272634959238869 1378817694304857589 997.69165 
272635048541478 1378817694366991378 997.5617 
272635086386739 1378817694431993819 997.5617 
272635150540563 1378817694495928146 997.6617 
272635213504090 1378817694559130050 997.5617 
272635286997148 1378817694623094894 997.5018 
272635355973189 1378817694686327315 997.5617 
272635419486083 1378817694750231124 997.4718 
272635485654250 1378817694813402511 997.7117 
272635562626629 1378817694877855636 997.5617 
272635626109003 1378817694940935470 997.5617 
272635658887884 1378817695004473067 997.5018 
272635722095575 1378817695067674972 997.53174 
272635786005234 1378817695131791141 997.53174 
272635859620372 1378817695195023563 997.53174 
272635924689806 1378817695258988407 997.6217 
272636020340653 1378817695322526005 997.5617 
272636068440761 1378817695386612919 997.53174 
272636108025683 1378817695449296024 997.5018 
272636173613963 1378817695513260868 997.6617 
272636234105342 1378817695575394657 997.5018 
272636313916115 1378817695640458133 997.5617 
272636357834932 1378817695703568485 997.6217 
272636421775112 1378817695767502811 997.5617 
272636484952283 1378817695830674198 997.5617 
272636555454342 1378817695894700077 997.53174 
272636646282969 1378817695957978090 997.6217 
272636676101374 1378817696021790346 997.4418 
272636739339586 1378817696084992250 997.69165 
272636803279766 1378817696148957094 997.5617 
272636873903906 1378817696212128481 997.53174 
272636952799070 1378817696276245913 997.6217 
272637025620678 1378817696339661440 997.6217 
272637057819671 1378817696403260073 997.5018 
272637120752680 1378817696466400942 997.53174 
272637184692860 1378817696530365786 997.69165 
272637256629377 1378817696593567690 997.6217 
272637323682636 1378817696657502016 997.6217 
272637387958539 1378817696720703920 997.53174 
272637469600534 1378817696784729799 997.53174 
272637533052389 1378817696848236879 997.5018 
272637566105952 1378817696911743959 997.5617 
272637629374683 1378817696974976381 997.6617 
272637693253824 1378817697038880190 997.5617 
272637766777402 1378817697102082094 997.5617 
272637852692249 1378817697166107973 997.6217 
272637883609386 1378817697229218325 997.69165 
272637947610605 1378817697293183168 997.5018 
272638010757256 1378817697356354555 997.5617 
272638080160584 1378817697420319399 997.5617 
272638169341112 1378817697483521303 997.6617 
272638201845308 1378817697547425112 997.5018 
272638265083520 1378817697610838905 997.6217 
272638329023700 1378817697674803749 997.53174 
272638403554448 1378817697737975136 997.5617 
272638483548344 1378817697802367225 997.5617 
272638519562383 1378817697865111366 997.69165 
272638583319442 1378817697929076210 997.5617 
272638646527132 1378817697992247596 997.6217 
272638721698809 1378817698056181923 997.53174 
272638786340959 1378817698119383827 997.53174 
272638856018968 1378817698183348671 997.53174 
272638931831573 1378817698247008339 997.6217 
272638991437861 1378817698310942665 997.53174 
272639027940225 1378817698373656288 997.5617 
272639092063529 1378817698437605318 997.6217 
272639161680497 1378817698500776705 997.53174 
272639223240089 1378817698564802584 997.5018 
272639293131741 1378817698628004488 997.5617 
272639361009049 1378817698692427095 997.5018 
272639425956402 1378817698755476412 997.6617 
