#SysTm EventTmStmp Pressure
312615956916321 1379577123566996985 990.01587 
312615994578460 1379577123821238928 990.01587 
312616044265626 1379577123885234289 990.01587 
312616107351237 1379577123948405676 989.9259 
312616171871303 1379577124012401038 989.9259 
312616235506281 1379577124075541907 990.10583 
312616302162773 1379577124139506750 990.10583 
312616361128132 1379577124202678137 990.04584 
312616430439899 1379577124266826086 990.1358 
312616488886411 1379577124329844885 990.01587 
312616553436999 1379577124393840247 990.04584 
312616615515435 1379577124457133704 990.10583 
312616679699778 1379577124520823889 990.04584 
312616742754869 1379577124584208899 990.0758 
312616806695048 1379577124647990637 990.0758 
312616870268985 1379577124711863928 990.0758 
312616933903960 1379577124775401526 990.10583 
312616996775927 1379577124838359289 990.0758 
312617063737625 1379577124902749085 990.10583 
312617124137441 1379577124965828919 990.10583 
312617188199702 1379577125029732728 990.04584 
312617251376873 1379577125093087220 990.1358 
312617316720991 1379577125156868958 990.04584 
312617378433183 1379577125220131898 990.10583 
312617442190242 1379577125284035706 990.0758 
312617505306371 1379577125347176575 990.1358 
312617572512232 1379577125411294007 989.9859 
312617633278293 1379577125474434876 990.0758 
312617696455462 1379577125538369202 990.10583 
312617768880306 1379577125601540589 990.10583 
312617823420212 1379577125665352845 990.1358 
312617887024669 1379577125728721983 990.10583 
312617952673989 1379577125792534239 990.04584 
312618015576477 1379577125855766661 990.0758 
312618079058850 1379577125920738585 990.0758 
312618141686655 1379577125982902891 990.04584 
312618205230071 1379577126047020323 990.1658 
312618268071517 1379577126109947569 990.04584 
312618332042217 1379577126173973448 990.0758 
312618395188867 1379577126237083799 990.04584 
312618459159568 1379577126301018126 990.1658 
312618522641943 1379577126364403135 990.1658 
312618586460041 1379577126428337462 990.1658 
312618649576171 1379577126491356260 990.01587 
312618713821555 1379577126555534727 990.04584 
312618776693521 1379577126618523008 990.1358 
312618844631871 1379577126682609923 990.0758 
312618906496665 1379577126745720274 990.10583 
312618968941347 1379577126809624083 990.10583 
312619031599672 1379577126872948057 990.0758 
312619094868403 1379577126936729796 990.01587 
312619158106616 1379577126999962217 990.10583 
312619224091660 1379577127064079649 990.04584 
312619287421433 1379577127127678282 990.1658 
312619350629124 1379577127191246397 990.10583 
312619412432877 1379577127254234678 990.04584 
312619476403579 1379577127318169005 990.04584 
312619540465839 1379577127381552690 990.01587 
312619603734571 1379577127445395464 990.04584 
312619668315679 1379577127508719438 990.04584 
312619730699321 1379577127572531694 990.10583 
312619793876492 1379577127635672563 990.1358 
312619858243956 1379577127699851030 990.10583 
312619922580901 1379577127762991899 990.1958 
312619985391829 1379577127827048296 990.04584 
312620054398390 1379577127889975542 990.1658 
312620112234496 1379577127953940385 989.9859 
312620175686349 1379577128017294878 990.0758 
312620240511620 1379577128081076616 990.01587 
312620302773181 1379577128144431108 990.0758 
312620367232206 1379577128208304399 990.0758 
312620429676888 1379577128271353716 990.04584 
312620494868404 1379577128336386675 990.0758 
312620566469196 1379577128398550981 990.1358 
312620648019632 1379577128463004106 990.0758 
312620759998878 1379577128526114458 990.1358 
312620779684518 1379577128590109819 990.1658 
312620814203059 1379577128652792925 990.01587 
312620875304844 1379577128716940874 990.1358 
312620938237853 1379577128779898637 990.01587 
312621004283938 1379577128844077104 990.0758 
312621071093033 1379577128907004350 990.01587 
312621149621951 1379577128971732134 990.10583 
312621206786609 1379577129034811968 990.0758 
312621271001472 1379577129098624223 990.01587 
312621356275393 1379577129161734575 990.01587 
312621383499564 1379577129225241655 990.01587 
312621448843682 1379577129288687700 990.04584 
312621510830558 1379577129352530473 990.01587 
312621573977209 1379577129415610307 989.9859 
312621655130879 1379577129479819292 990.01587 
312621735246855 1379577129543173784 990.10583 
312621765614626 1379577129607230180 989.95593 
312621829432724 1379577129670737260 990.0758 
312621892121570 1379577129733817094 990.01587 
312621966652318 1379577129797232622 990.04584 
312622032026957 1379577129861014360 990.0758 
312622111898770 1379577129924643510 990.0758 
312622172573271 1379577129988699907 990.0758 
312622238253112 1379577130051779741 990.1358 
312622302925781 1379577130115958208 990.1658 
312622368697185 1379577130178854936 990.10583 
312622418353830 1379577130242880815 990.01587 
312622464195429 1379577130305747026 990.0758 
312622527952486 1379577130369528764 990.01587 
312622591526422 1379577130432913774 990.1358 
312622655100359 1379577130496664995 990.0758 
312622720688639 1379577130559836382 990.0758 
312622782339790 1379577130624250669 990.0758 
312622845516961 1379577130687269468 990.1958 
312622909609744 1379577130751447935 990.04584 
312622975442186 1379577130814466734 990.04584 
312623058640720 1379577130878858823 990.0758 
312623115805378 1379577130942152280 990.04584 
312623184232054 1379577131006056089 990.01587 
312623251407393 1379577131069959898 990.1358 
312623304940126 1379577131133253355 990.04584 
312623375777909 1379577131196272153 990.01587 
312623429951570 1379577131259901304 990.0758 
312623483911590 1379577131323133726 990.0758 
312623548492697 1379577131387159605 990.04584 
312623608617832 1379577131450269956 990.01587 
312623675396406 1379577131514051694 990.04584 
312623740160635 1379577131577223081 990.04584 
312623807305454 1379577131641371030 990.0758 
312623867491629 1379577131704389829 990.0758 
312623929509026 1379577131768537778 990.01587 
312623990336128 1379577131831556577 990.1358 
312624062150565 1379577131895887632 990.10583 
312624130638280 1379577131959028501 990.0758 
312624192136829 1379577132023115415 990.0758 
312624254306829 1379577132086378355 990.0758 
312624320261353 1379577132150221128 990.1358 
312624381332618 1379577132213514585 990.10583 
312624446463092 1379577132278480471 990.0758 
312624508694131 1379577132340156496 990.0758 
312624571901823 1379577132404334963 990.0758 
312624635933564 1379577132467933596 990.01587 
312624700392591 1379577132531928957 990.10583 
312624771779741 1379577132594734133 990.04584 
312624851224271 1379577132658851565 990.10583 
312624880340706 1379577132722022951 990.10583 
312624943731519 1379577132785499514 990.04584 
312625006939210 1379577132848762453 990.01587 
312625071184594 1379577132912818850 990.04584 
312625134087081 1379577132975807131 990.1358 
312625198454547 1379577133040016115 990.01587 
312625262028482 1379577133103004397 990.0758 
312625325327735 1379577133166908205 990.1358 
312625388535426 1379577133230079592 990.1358 
312625452475606 1379577133294074953 990.1358 
312625515896939 1379577133357398928 990.0758 
312625580386486 1379577133421180666 990.1658 
312625642800647 1379577133484382570 990.10583 
312625707107072 1379577133548500002 990.0758 
312625770131641 1379577133611579836 990.04584 
312625835597840 1379577133675758303 990.10583 
312625897462635 1379577133738655031 990.1358 
312625962623629 1379577133802619875 990.04584 
312626025281955 1379577133865943850 990.10583 
312626088245482 1379577133929756106 990.04584 
312626151605775 1379577133993110598 990.1358 
312626215545954 1379577134056953371 990.10583 
312626278540003 1379577134120063723 990.1658 
312626342876949 1379577134184242190 990.01587 
312626405748915 1379577134247199953 990.04584 
312626469780658 1379577134311317385 990.04584 
312626533140950 1379577134374366701 990.04584 
312626596867487 1379577134438301027 990.0758 
312626661173912 1379577134501655520 990.1358 
312626724381603 1379577134565437258 990.0758 
312626787528253 1379577134628700197 990.10583 
312626854154226 1379577134692787111 990.22577 
312626914370920 1379577134755775393 990.10583 
312626978524744 1379577134819923342 990.0758 
312627042495443 1379577134882881106 990.0758 
312627105428452 1379577134946845949 990.04584 
312627172664832 1379577135010291994 990.04584 
312627232667884 1379577135074012697 990.04584 
312627296028177 1379577135137336672 990.10583 
312627360945008 1379577135201087893 990.1358 
312627423694894 1379577135264259279 990.0758 
312627489100052 1379577135328254641 990.01587 
312627550323918 1379577135391700686 990.04584 
312627614080977 1379577135455839283 990.01587 
312627677166586 1379577135518888599 990.04584 
312627742785387 1379577135582822925 990.10583 
312627808343147 1379577135646421558 990.01587 
312627868132556 1379577135709959156 990.01587 
312627931614931 1379577135773374683 990.10583 
312627995249907 1379577135837156422 990.0758 
312628058762802 1379577135900541431 990.01587 
312628122397779 1379577135964201099 990.1358 
312628185635990 1379577136027433521 990.1358 
312628251468433 1379577136091642506 990.0758 
312628323435471 1379577136154752857 990.01587 
312628376876643 1379577136218534595 990.04584 
312628440816824 1379577136281889088 989.9859 
312628504940126 1379577136345701343 990.0758 
312628567262726 1379577136408842213 990.10583 
312628640236936 1379577136473051197 990.1358 
312628694532678 1379577136536008961 990.0758 
312628759388470 1379577136600706226 990.10583 
312628821619509 1379577136663145191 990.04584 
312628886231137 1379577136727232105 990.01587 
312628949011543 1379577136790525562 990.0758 
312629012463396 1379577136854246265 990.0758 
312629075732130 1379577136917478687 990.0758 
312629140099595 1379577136981321461 990.0758 
312629202849480 1379577137044523365 990.10583 
312629266698099 1379577137108700547 990.10583 
312629330149952 1379577137172055039 990.10583 
312629394090133 1379577137236019883 990.10583 
312629458732281 1379577137299221787 990.0758 
312629521634770 1379577137363034043 990.0758 
312629585422347 1379577137426419053 990.1358 
312629649576170 1379577137490170274 990.04584 
312629711563045 1379577137553341660 990.0758 
312629775838951 1379577137617459092 990.10583 
312629838710917 1379577137680477891 990.0758 
312629950568081 1379577137744656358 989.9859 
312629965858788 1379577137807675156 990.0758 
312630033644536 1379577137871548447 990.10583 
312630093250823 1379577137934887255 990.0758 
312630166408156 1379577137999065721 990.1658 
312630245913725 1379577138062420214 990.1658 
312630287207790 1379577138125927294 990.01587 
312630349530390 1379577138189220751 990.1358 
312630412982244 1379577138252971971 990.10583 
312630487574033 1379577138316540087 990.1358 
312630550873285 1379577138380352343 990.0758 
312630609930207 1379577138443310106 990.10583 
312630694074872 1379577138507641161 990.1358 
312630767567929 1379577138571026171 990.04584 
312630792716715 1379577138634319628 990.1358 
312630856077010 1379577138697643602 990.1358 
312630922733502 1379577138761822069 990.1358 
312630987589293 1379577138824688280 990.0758 
312631083789507 1379577138889690721 990.04584 
312631136040385 1379577138952160204 990.01587 
312631198301944 1379577139016247118 990.0758 
312631265996129 1379577139079601610 990.0758 
312631328074568 1379577139143383348 990.04584 
312631394242734 1379577139206829393 990.10583 
312631453757460 1379577139270519579 990.10583 
312631522794544 1379577139333599413 990.10583 
312631578890987 1379577139397930468 990.10583 
312631644448746 1379577139460766161 990.0758 
312631733476672 1379577139524914110 990.10583 
312631773092116 1379577139588115246 990.04584 
312631809625001 1379577139651591808 990.1358 
312631873870385 1379577139714976818 990.01587 
312631938878781 1379577139778728039 990.10583 
312632010937379 1379577139842082531 990.1358 
312632077471790 1379577139906322033 990.04584 
312632157801410 1379577139969432385 990.0758 
312632215118668 1379577140032176525 990.0758 
312632275854211 1379577140096629650 990.10583 
312632405107987 1379577140160838635 989.9859 
312632412402355 1379577140223796398 990.1358 
312632445425398 1379577140287272961 990.01587 
312632509670784 1379577140351451428 990.1358 
312632572970035 1379577140414423358 990.1358 
312632646371530 1379577140477777850 990.04584 
312632725144611 1379577140542322528 990.0758 
312632787284089 1379577140605158222 990.0758 
312632855954928 1379577140669947040 990.0758 
312632913211146 1379577140732416522 990.1658 
312632977670172 1379577140796350849 990.10583 
312633051804156 1379577140859644306 989.95593 
312633107992163 1379577140923731220 989.95593 
312633147973850 1379577140986688983 990.10583 
312633208831473 1379577141050104511 990.10583 
312633271947602 1379577141113245380 990.04584 
312633346936158 1379577141177454364 990.1358 
312633419116838 1379577141239649188 990.04584 
312633489527338 1379577141305017841 990.1358 
312633597172690 1379577141368006122 990.01587 
312633605046946 1379577141431604755 990.0758 
312633653208093 1379577141494928729 990.10583 
312633720993841 1379577141560236347 990.0758 
312633782400830 1379577141621973407 990.10583 
312633871428757 1379577141685938251 990.10583 
312633932835745 1379577141749384296 990.04584 
312633993601807 1379577141813684833 990.04584 
312634054612031 1379577141876520526 990.04584 
312634126151783 1379577141940576923 990.1358 
312634179257232 1379577142003839862 990.1658 
312634225495596 1379577142067433171 990.1958 
312634289405255 1379577142130787663 990.04584 
312634352857110 1379577142194599919 990.1358 
312634416064800 1379577142257771306 990.0758 
312634480920592 1379577142321949773 990.0758 
312634543182151 1379577142384938054 990.10583 
312634607122331 1379577142448872380 990.1358 
312634670299501 1379577142512043767 990.01587 
312634734270202 1379577142576008610 990.0758 
312634799125994 1379577142639424138 990.10583 
312634862028481 1379577142703144841 990.04584 
312634924839408 1379577142766468815 990.0758 
312634989267914 1379577142830324239 990.10583 
312635051743115 1379577142893465108 990.10583 
312635115957980 1379577142957643575 990.0758 
312635179165670 1379577143020784444 989.95593 
312635243075331 1379577143084749288 990.01587 
312635306405103 1379577143147737569 990.0758 
312635371413496 1379577143211702413 990.04584 
312635433552974 1379577143275148458 990.01587 
312635497187950 1379577143338838643 990.0758 
312635561097610 1379577143401979512 990.10583 
312635625404034 1379577143466188497 990.04584 
312635688306521 1379577143529176778 989.95593 
312635751849937 1379577143593385762 990.10583 
312635814721903 1379577143656343526 990.0758 
312635878601044 1379577143720247335 990.1358 
312635942968508 1379577143783632344 990.1358 
312636006420364 1379577143848024434 990.10583 
312636069200769 1379577143910738057 990.10583 
312636133079907 1379577143974519796 990.1358 
312636196134998 1379577144037691182 990.10583 
312636262730449 1379577144101900167 990.1358 
312636323130266 1379577144164827413 990.1658 
312636387223049 1379577144228975362 990.0758 
312636450339179 1379577144291933126 990.10583 
312636520688637 1379577144355836934 990.04584 
312636586154835 1379577144419221944 990.0758 
312636641915555 1379577144483277090 990.04584 
312636705611573 1379577144546601065 990.0758 
312636768910824 1379577144610626944 990.0758 
312636831843832 1379577144673584708 990.1358 
312636895692452 1379577144737519034 990.0758 
312636958930664 1379577144800720938 990.0758 
312637023267609 1379577144864838370 990.0758 
312637086383738 1379577144928040274 990.1358 
312637150384958 1379577144991822012 990.0758 
312637214325139 1379577145056000479 990.0758 
312637277471790 1379577145119080313 990.04584 
312637341167807 1379577145182129629 990.1358 
312637404589140 1379577145246277579 990.10583 
312637467705270 1379577145309280455 990.0758 
312637531767531 1379577145373428404 990.0758 
312637594914183 1379577145436508238 990.04584 
312637658610200 1379577145500381529 990.10583 
312637723130266 1379577145564804137 990.1358 
312637785880152 1379577145627517760 990.01587 
312637849179403 1379577145690841734 990.01587 
312637913180625 1379577145754653990 990.0758 
312637976144153 1379577145817855894 990.0758 
312638041091505 1379577145881881773 990.1658 
312638103292024 1379577145944961607 990.04584 
312638167537407 1379577146009109557 990.10583 
312638230714579 1379577146072097838 990.0758 
312638294410595 1379577146136062682 989.9859 
312638359327428 1379577146199234068 990.01587 
312638422290957 1379577146263931334 990.04584 
312638485010321 1379577146326370299 990.01587 
312638549011542 1379577146390518248 990.04584 
312638612341314 1379577146453537047 990.04584 
312638676067852 1379577146517440855 990.1358 
312638739245024 1379577146580825865 990.04584 
312638803032601 1379577146644607603 990.0758 
312638866423414 1379577146707931578 990.04584 
312638930272033 1379577146771743834 989.84595 
312638993784929 1379577146835067808 989.95593 
312639057358863 1379577146898849547 990.10583 
312639121238003 1379577146962228453 990.01587 
312639185208704 1379577147026376403 990.01587 
312639247928068 1379577147089364684 990.04584 
312639311837729 1379577147153573668 990.0758 
312639374953858 1379577147216531432 990.10583 
312639438710916 1379577147280465758 990.10583 
312639503505667 1379577147343850768 990.0758 
312639584384654 1379577147407815612 990.04584 
312639641518791 1379577147470986998 990.0758 
312639708694130 1379577147535195983 990.10583 
312639772573269 1379577147598306334 990.01587 
312639836940734 1379577147662362731 990.0758 
312639898286684 1379577147725456392 990.0758 
312639961769057 1379577147789421236 990.04584 
312640025373514 1379577147852928316 990.0758 
312640096608062 1379577147916679536 990.0758 
312640137810565 1379577147979484712 990.0758 
312640210540613 1379577148043266450 990.01587 
312640278417920 1379577148106834566 990.10583 
312640340832082 1379577148171287691 990.0758 
312640410845816 1379577148233909761 990.10583 
312640468102034 1379577148297813570 990.01587 
312640533446152 1379577148361107027 990.0758 
312640598546106 1379577148425163423 990.0758 
312640661509634 1379577148488517915 990.1358 
312640741930815 1379577148552299654 990.1358 
312640785697029 1379577148615165864 990.01587 
312640843746777 1379577148679008638 990.0758 
312640900728313 1379577148742149507 990.04584 
312640973244716 1379577148806327974 990.04584 
312641042403882 1379577148869651948 990.04584 
312641127769362 1379577148933921968 989.9259 
312641176540917 1379577148997062837 990.04584 
312641245577999 1379577149060844575 990.0758 
312641313485830 1379577149124168550 990.0758 
312641373672003 1379577149188011323 990.01587 
312641443990940 1379577149251060640 990.0758 
312641496547021 1379577149315300142 990.10583 
312641575777907 1379577149378440030 990.01587 
312641600835134 1379577149442221768 990.10583 
312641663920745 1379577149505362637 990.10583 
312641729844748 1379577149569357999 990.0758 
312641796196037 1379577149632651456 990.04584 
312641875030159 1379577149696341641 990.01587 
312641944830250 1379577149760092862 990.01587 
312642010449051 1379577149823935635 990.04584 
312642076739300 1379577149887045987 990.0758 
312642135124771 1379577149951102383 990.10583 
312642197966220 1379577150014151700 990.1358 
312642267979953 1379577150078421719 990.1358 
312642299538018 1379577150140921719 990.0758 
312642364119127 1379577150205511375 990.0758 
312642428700235 1379577150269232078 990.10583 
312642507351235 1379577150332098289 990.01587 
312642562593109 1379577150395788475 990.0758 
312642617560299 1379577150459265037 990.10583 
312642681378397 1379577150522283836 990.04584 
312642747455003 1379577150586492821 990.10583 
312642807793778 1379577150649420067 990.0758 
312642872039163 1379577150713568016 990.0758 
312642935124772 1379577150776647850 990.01587 
312642999125993 1379577150840765281 990.04584 
312643062303164 1379577150903875633 990.10583 
312643126060221 1379577150967657371 990.10583 
