#SysTm EventTmStmp Pressure
467131451331514 1379794295627333920 994.8632 
467131466652741 1379794295818465512 994.8632 
467131545242699 1379794295881636899 994.83325 
467131593373327 1379794295945601743 994.8632 
467131657313507 1379794296008773129 994.83325 
467131720979004 1379794296072768491 994.8032 
467131782996400 1379794296135970395 994.8632 
467131847546989 1379794296200057309 994.9531 
467131913043707 1379794296263045590 994.92316 
467131975030583 1379794296327040952 994.8932 
467132045135879 1379794296390151303 994.8632 
467132102758341 1379794296454252905 994.83325 
467132164623137 1379794296517393774 994.92316 
467132228258112 1379794296581389135 994.83325 
467132291618405 1379794296644530005 994.77325 
467132355344943 1379794296708525366 994.83325 
467132418461072 1379794296771666235 994.92316 
467132482523335 1379794296835631079 994.8632 
467132545700505 1379794296898832983 994.83325 
467132609701726 1379794296962797827 994.83325 
467132672756815 1379794297025938696 994.8932 
467132737276882 1379794297089903540 994.8032 
467132799996248 1379794297153074926 994.8932 
467132864089029 1379794297217039770 994.8032 
467132927083079 1379794297280211157 994.83325 
467132991145340 1379794297344206518 994.83325 
467133056184252 1379794297408323950 994.83325 
467133118232169 1379794297471342749 994.83325 
467133181378820 1379794297534483618 994.77325 
467133245685246 1379794297598387426 994.77325 
467133308587733 1379794297661619848 994.77325 
467133372527913 1379794297725615210 994.83325 
467133435674562 1379794297788756079 994.83325 
467133499706303 1379794297852720923 994.83325 
467133563066599 1379794297915922827 994.8632 
467133627922389 1379794297979857153 994.83325 
467133689970305 1379794298043028540 994.8032 
467133753971525 1379794298107205734 994.8632 
467133818064307 1379794298170377120 994.8632 
467133881119399 1379794298234372482 994.77325 
467133944266048 1379794298297513351 994.8932 
467134008267268 1379794298361478194 994.77325 
467134071810683 1379794298424649581 994.8032 
467134135384618 1379794298488644942 994.83325 
467134198561790 1379794298551785812 994.92316 
467134307153275 1379794298615964278 994.8032 
467134325618100 1379794298678922042 994.77325 
467134389497238 1379794298742856368 994.7433 
467134452613368 1379794298805966720 994.71326 
467134521314730 1379794298869992599 994.77325 
467134601430707 1379794298933270699 994.77325 
467134668483965 1379794298997662789 994.8632 
467134760869132 1379794299060773141 994.8632 
467134782874320 1379794299124280221 994.8932 
467134857588191 1379794299187451607 994.8032 
467134913898277 1379794299251416451 994.83325 
467135033385534 1379794299314618355 994.98315 
467135060487625 1379794299378522164 994.83325 
467135088657929 1379794299441724068 994.9531 
467135152628629 1379794299505688912 994.8632 
467135222550803 1379794299568921334 994.83325 
467135286185778 1379794299632886178 994.83325 
467135366545920 1379794299696057564 994.92316 
467135436803816 1379794299760602242 994.83325 
467135485270168 1379794299823651559 994.8032 
467135547592768 1379794299887646920 994.77325 
467135611258265 1379794299950757271 994.77325 
467135696623746 1379794300015027291 994.8632 
467135724275203 1379794300077435738 994.8632 
467135788429026 1379794300141522652 994.8032 
467135851667238 1379794300204571969 994.8032 
467135919300383 1379794300268475777 994.8932 
467135987940700 1379794300332104928 994.8032 
467136053925745 1379794300396191842 994.83325 
467136156809920 1379794300459271676 994.8032 
467136169720038 1379794300522931344 994.8632 
467136232775127 1379794300586192454 994.8032 
467136296806868 1379794300650157298 994.77325 
467136373535084 1379794300713328685 994.92316 
467136445563164 1379794300777324046 994.8632 
467136514722326 1379794300840861644 994.8032 
467136576251398 1379794300904918040 994.8632 
467136647638548 1379794300968058909 994.8632 
467136678342042 1379794301031718577 994.92316 
467136741366612 1379794301094737376 994.8632 
467136805367832 1379794301158671702 994.83325 
467136878891409 1379794301221873606 994.8032 
467136935781384 1379794301285899485 994.8032 
467136995662354 1379794301349009837 994.8032 
467137059602535 1379794301412928310 994.8632 
467137132179979 1379794301476160731 994.8632 
467137198134505 1379794301540156093 994.8632 
467137274832200 1379794301603693690 994.8932 
467137337643126 1379794301667750087 994.8932 
467137398989075 1379794301731959071 994.83325 
467137466042332 1379794301794886317 994.8632 
467137527968168 1379794301857966151 994.77325 
467137591114819 1379794301922053065 994.8032 
467137665645568 1379794301985132899 994.8932 
467137696959470 1379794302049006190 994.8932 
467137758519061 1379794302111811366 994.8932 
467137822978087 1379794302175806728 994.77325 
467137889054694 1379794302239039149 994.8032 
467137993953213 1379794302303431239 994.8632 
467138039123364 1379794302366541591 994.8032 
467138077884237 1379794302430048671 994.83325 
467138144876454 1379794302493372645 994.8632 
467138203994416 1379794302557154384 994.8032 
467138268483962 1379794302620325770 994.8032 
467138346127790 1379794302684290614 994.8632 
467138394472059 1379794302747523036 994.8032 
467138460090860 1379794302811670985 994.8932 
467138521894615 1379794302874628749 994.8032 
467138585438029 1379794302938593593 994.77325 
467138648645720 1379794303001795497 994.8632 
467138712616421 1379794303065972716 994.83325 
467138779669678 1379794303129174621 994.7433 
467138853162736 1379794303193261535 994.8932 
467138909350741 1379794303256280333 994.83325 
467138976922845 1379794303320275695 994.77325 
467139045685244 1379794303383935363 994.8032 
467139106970151 1379794303448205382 994.8032 
467139190595972 1379794303511163146 994.83325 
467139221085824 1379794303574487121 994.77325 
467139284293515 1379794303637689025 994.92316 
467139348264216 1379794303701623351 994.8632 
467139414279780 1379794303764825255 994.83325 
467139529768870 1379794303828820617 994.8932 
467139549332428 1379794303891945555 994.77325 
467139609518603 1379794303955879881 994.8932 
467139670437266 1379794304019051268 994.83325 
467139774816940 1379794304083046629 994.8632 
467139792915521 1379794304146218016 994.8032 
467139857282985 1379794304210152342 994.8632 
467139922840745 1379794304273384764 994.83325 
467139984400337 1379794304337288572 994.8932 
467140055512804 1379794304400490477 994.8632 
467140111334565 1379794304464424803 994.8032 
467140178693026 1379794304527718260 994.83325 
467140244800153 1379794304591622068 994.83325 
467140309137099 1379794304654793455 994.8632 
467140376403999 1379794304718788816 994.8632 
467140456794659 1379794304782601072 994.8632 
467140493327546 1379794304845864012 994.8632 
467140555802747 1379794304908974363 994.8632 
467140621329988 1379794304972969725 994.8032 
467140690367069 1379794305036141111 994.77325 
467140747440165 1379794305100105955 994.8032 
467140833446575 1379794305162087156 994.83325 
467140909747506 1379794305228035643 994.8032 
467140937307402 1379794305290505125 994.7433 
467141001217061 1379794305354439451 994.8632 
467141065492966 1379794305417580320 994.83325 
467141139016543 1379794305481545164 994.8932 
467141213394691 1379794305545015652 994.8032 
467141276236137 1379794305609468777 994.8032 
467141339993195 1379794305672518093 994.83325 
467141383240562 1379794305736055691 994.8932 
467141445898887 1379794305799257595 994.83325 
467141509778025 1379794305863191922 994.8932 
467141579089792 1379794305926393826 994.8632 
467141657923913 1379794305990846951 994.9531 
467141720917961 1379794306054018338 994.8632 
467141788337464 1379794306117983181 994.8032 
467141850751626 1379794306181093533 994.83325 
467141916095743 1379794306245119412 994.8632 
467141977197528 1379794306308213308 994.8032 
467142045441080 1379794306371628835 994.83325 
467142081607723 1379794306434983327 994.8932 
467142145578423 1379794306498887136 994.8632 
467142208786114 1379794306562089040 994.8632 
467142272695774 1379794306626053884 994.8632 
467142338039890 1379794306689225271 994.8632 
467142420139694 1379794306753251150 994.8632 
467142486918267 1379794306816788747 994.77325 
467142550705845 1379794306880845144 994.8032 
467142614737586 1379794306943863943 994.83325 
467142675656251 1379794307007981374 994.92316 
467142737337922 1379794307070939138 994.8932 
467142781287258 1379794307134598806 994.8632 
467142844494949 1379794307197770193 994.8032 
467142908496170 1379794307261704519 994.67334 
467142981409339 1379794307324875905 994.8032 
467143035644041 1379794307388840749 994.76324 
467143098790691 1379794307452012136 994.7333 
467143162852954 1379794307515976980 994.83325 
467143232500444 1379794307579178884 994.8032 
467143304986327 1379794307643632009 994.77325 
467143380493728 1379794307706742360 994.8032 
467143438207752 1379794307770951345 994.8932 
467143501262842 1379794307833848073 994.83325 
467143567064764 1379794307897904470 994.8632 
467143631340668 1379794307961044098 994.8932 
467143698943293 1379794308025100494 994.8632 
467143766149152 1379794308088149811 994.8032 
467143798592310 1379794308151870514 994.83325 
467143861647398 1379794308214919830 994.83325 
467143925557058 1379794308278762604 994.76324 
467143992701878 1379794308342025543 994.92316 
467144059572013 1379794308406020904 994.83325 
467144136452831 1379794308469558502 994.8032 
467144201705387 1379794308533675934 994.83325 
467144316980833 1379794308596725250 994.8632 
467144343350435 1379794308660781647 994.8032 
467144378815108 1379794308723464752 994.83325 
467144441931239 1379794308787399078 994.83325 
467144547684329 1379794308850600983 994.83325 
467144567858295 1379794308914565826 994.8632 
467144624656708 1379794308977859283 994.8032 
467144688505326 1379794309041671539 994.8032 
467144751743538 1379794309104873444 994.76324 
467144829448406 1379794309169326569 994.7333 
467144878830368 1379794309231979156 994.76324 
467144944937494 1379794309295913483 994.76324 
467145008206226 1379794309359145904 994.83325 
467145087711796 1379794309423202301 994.83325 
467145146799236 1379794309487228180 994.76324 
467145207168534 1379794309550735260 994.83325 
467145260487624 1379794309613418365 994.83325 
467145326350588 1379794309677352692 994.8932 
467145387574455 1379794309740554596 994.8032 
467145476785504 1379794309805038238 994.8032 
467145535750862 1379794309868087555 994.83325 
467145599965725 1379794309932174469 994.8632 
467145658931085 1379794309995254303 994.8932 
467145705749336 1379794310058761383 994.8032 
467145768895988 1379794310121963287 994.8932 
467145833202412 1379794310186294342 994.8632 
467145899858906 1379794310249099518 994.76324 
467145981775584 1379794310313552643 994.8632 
467146047699589 1379794310376662994 994.8632 
467146119269862 1379794310440658356 994.9531 
467146175915673 1379794310503799225 994.8632 
467146236040807 1379794310567825104 994.92316 
467146297142592 1379794310630935455 994.9531 
467146367186847 1379794310695876862 994.92316 
467146428624356 1379794310758041168 994.8632 
467146494517839 1379794310822097565 994.8632 
467146555802747 1379794310885207916 994.8632 
467146617209735 1379794310949264313 994.92316 
467146678738807 1379794311012313629 994.8932 
467146746280390 1379794311076370026 994.7932 
467146813272609 1379794311139449860 994.92316 
467146877212788 1379794311203772624 994.8632 
467146937154800 1379794311266944011 994.8932 
467146997585137 1379794311331000408 994.9531 
467147061555836 1379794311396369060 994.8632 
467147158702181 1379794311458136638 994.8932 
467147170605127 1379794311520789226 994.8932 
467147231432229 1379794311584693034 994.8632 
467147294670441 1379794311647955974 994.7932 
467147369781077 1379794311711890300 994.8932 
467147446143049 1379794311775092204 994.8632 
467147510418953 1379794311839728435 994.8632 
467147573351962 1379794311902777751 994.8632 
467147637627865 1379794311966803630 994.83325 
467147697997161 1379794312029913982 994.92316 
467147767949854 1379794312094031413 994.92316 
467147828715916 1379794312157019695 994.9531 
467147893083382 1379794312221137126 994.92316 
467147956291073 1379794312284155925 994.8932 
467147994380497 1379794312347601970 994.92316 
467148057557669 1379794312410773357 994.8932 
467148124183641 1379794312474707683 994.8932 
467148192610316 1379794312537909587 994.92316 
467148261250633 1379794312601874431 994.83325 
467148330531878 1379794312665106853 994.83325 
467148398470226 1379794312729712566 994.83325 
467148458839524 1379794312792731365 994.8932 
467148529036380 1379794312856939047 994.8632 
467148591572624 1379794312921300619 994.92316 
467148655695925 1379794312983922690 994.8632 
467148716400946 1379794313047124594 994.8932 
467148778601464 1379794313111211508 994.83325 
467148841015627 1379794313174291342 994.83325 
467148910998840 1379794313238286703 994.8932 
467148998470227 1379794313301274985 994.92316 
467149019193559 1379794313364721030 994.83325 
467149081973966 1379794313427892416 994.8632 
467149156382633 1379794313491887778 994.83325 
467149273245139 1379794313555059164 994.92316 
467149281790843 1379794313618993491 994.76324 
467149329005859 1379794313682423189 994.76324 
467149392946040 1379794313746357515 994.98315 
467149461036990 1379794313809589937 994.83325 
467149530165633 1379794313873554781 994.8632 
467149608969235 1379794313937306001 994.8632 
467149677090707 1379794314001240328 994.8932 
467149710449473 1379794314063831880 994.8632 
467149775610468 1379794314128966746 994.8632 
467149837536303 1379794314190917430 994.83325 
467149906573386 1379794314254912791 994.76324 
467149981928186 1379794314318389353 994.8632 
467150086216297 1379794314382750926 994.8632 
467150095494491 1379794314445220408 994.83325 
467150155833266 1379794314509215769 994.8632 
467150219010437 1379794314572387156 994.7932 
467150288841050 1379794314636352000 994.82324 
467150376220875 1379794314700072703 994.82324 
467150434911551 1379794314764159617 994.92316 
467150499645261 1379794314827147898 994.92316 
467150537704165 1379794314890990672 994.7932 
467150602285274 1379794314953840888 994.8632 
467150664516313 1379794315017775214 994.92316 
467150727601922 1379794315080977118 994.8932 
467150814218739 1379794315145430243 994.9531 
467150876205615 1379794315208876288 994.8632 
467150941610774 1379794315272780097 994.8632 
467151007962062 1379794315336958564 994.8632 
467151071017152 1379794315399977363 994.8932 
467151139352266 1379794315462935126 994.8932 
467151175793591 1379794315526350654 994.8932 
467151236254447 1379794315589613593 994.8932 
467151300225148 1379794315653517402 994.83325 
467151374328612 1379794315716719306 994.8932 
467151454047826 1379794315780684150 994.8932 
467151518262688 1379794315844252265 994.82324 
467151554917655 1379794315908186591 994.8932 
467151617789623 1379794315971022284 994.8932 
467151681668762 1379794316034926093 994.8932 
467151744876452 1379794316098127997 994.7932 
467151813730412 1379794316162062323 994.8632 
467151877426430 1379794316225264228 994.8932 
467151938131450 1379794316289198554 994.82324 
467151999202715 1379794316352400458 994.8932 
467152086399419 1379794316416884101 994.8932 
467152157115122 1379794316479902900 994.8932 
467152215164869 1379794316544050849 994.8932 
467152276907585 1379794316607216228 994.92316 
467152339230184 1379794316671272624 994.7932 
467152400850815 1379794316734627116 994.8632 
467152468758644 1379794316798408855 994.82324 
467152531783213 1379794316861488689 994.92316 
467152595357150 1379794316925575603 994.7932 
467152656733618 1379794316988624919 994.8632 
467152722077734 1379794317052681316 994.76324 
467152786597801 1379794317115761150 994.8632 
467152849927574 1379794317179848064 994.92316 
467152914264520 1379794317242927898 994.82324 
467152976800762 1379794317306953777 994.8632 
467153042205920 1379794317370078121 994.8632 
467153100743994 1379794317434195553 994.82324 
467153199446878 1379794317497305904 994.8932 
467153208114663 1379794317560843502 994.82324 
467153270589868 1379794317623984371 994.8632 
467153334560568 1379794317687888180 994.8932 
467153407168534 1379794317751151119 994.7932 
467153482340210 1379794317815085445 994.92316 
467153549912314 1379794317878867183 994.8932 
467153613486251 1379794317943167721 994.98315 
467153698577048 1379794318005881344 994.7932 
467153725404455 1379794318069815670 994.8932 
467153787299771 1379794318132468258 994.92316 
467153851606196 1379794318196463619 994.8632 
467153979639157 1379794318259635006 994.8632 
467153990962215 1379794318323569332 994.92316 
467154033446574 1379794318386771236 994.8932 
467154097356234 1379794318450644527 994.8932 
467154167247886 1379794318513907467 994.8932 
467154241717595 1379794318577872310 994.8932 
467154315027529 1379794318641562496 994.76324 
467154376373478 1379794318705588375 994.8632 
467154437322662 1379794318768790279 994.9531 
467154500103068 1379794318832755123 994.92316 
467154567980376 1379794318895926510 994.8932 
467154631584832 1379794318959952389 994.82324 
467154694792523 1379794319023061579 994.8632 
467154768926507 1379794319087270564 994.82324 
467154796761086 1379794319150136775 994.7932 
467154860365542 1379794319213704890 994.8632 
467154923878437 1379794319276876276 994.82324 
467154996059117 1379794319340810603 994.8632 
467155072268488 1379794319404043025 994.8932 
467155137185319 1379794319468679255 994.82324 
467155215958399 1379794319531972712 994.82324 
467155241809155 1379794319595174616 994.8932 
467155305962978 1379794319659292048 994.82324 
467155368957027 1379794319722249812 994.8932 
467155434881032 1379794319785451716 994.82324 
467155516400946 1379794319849522505 994.7932 
467155582019747 1379794319913090620 994.7932 
467155680173264 1379794319977147017 994.8932 
467155688261163 1379794320040043745 994.7932 
467155750339599 1379794320103733931 994.82324 
467155814096657 1379794320166966353 994.98315 
467155881119394 1379794320230839644 994.8632 
467155961815261 1379794320294560347 994.82324 
467156029204244 1379794320359532271 994.8932 
467156093937954 1379794320421757613 994.9531 
467156155222862 1379794320485814009 994.8532 
467156218461073 1379794320548954878 994.82324 
467156279929103 1379794320612980757 994.9531 
467156347714851 1379794320675999556 994.82324 
467156411166704 1379794320740116988 994.8932 
467156474954281 1379794320803105269 994.92316 
467156559495712 1379794320868290816 994.8932 
467156597066289 1379794320930333052 994.8932 
467156640801983 1379794320993687544 994.92316 
467156718689973 1379794321056950484 994.8932 
467156767492048 1379794321120793257 994.82324 
467156837322660 1379794321183995161 994.8532 
467156920948481 1379794321248722945 994.9531 
467156978174178 1379794321311741744 994.82324 
467157048096352 1379794321375767622 994.8532 
467157112799541 1379794321438877974 994.92316 
467157174023408 1379794321503055561 994.7932 
467157234362183 1379794321566226948 994.82324 
467157297966640 1379794321630252827 994.8932 
467157361998381 1379794321693210590 994.82324 
467157427128856 1379794321757358539 994.92316 
467157491282678 1379794321820438373 994.8532 
467157555924827 1379794321884494770 994.8532 
467157617698060 1379794321947574604 994.8532 
467157678280999 1379794322011631000 994.8532 
467157760533403 1379794322074619282 994.7932 
467157809121837 1379794322138156879 994.8932 
467157873794505 1379794322201663959 994.8532 
467157935354096 1379794322265750873 994.8932 
467157997829298 1379794322328906109 994.8532 
467158059633053 1379794322392931988 994.7333 
467158127632441 1379794322456011822 994.92316 
467158189222553 1379794322520098736 994.8932 
467158256855698 1379794322583178570 994.8932 
467158317133434 1379794322647234967 994.82324 
467158406710726 1379794322710284283 994.7932 
467158428288631 1379794322773852398 994.92316 
467158491465801 1379794322837023785 994.82324 
467158556077429 1379794322900988629 994.8532 
467158684598716 1379794322964160016 994.7932 
467158693022339 1379794323028094342 994.8532 
