#SysTm EventTmStmp Pressure
342816248855 1375068398788071794 891.1102 
342827297230 1375068398851365251 891.0503 
342838650808 1375068398915208025 891.1102 
342850401152 1375068398978715105 891.17017 
342901889021 1375068399042374773 891.2002 
342936163399 1375068399105637712 891.2002 
342987895429 1375068399169449968 891.1602 
343050981040 1375068399232834978 891.08026 
343109427552 1375068399296616716 891.1002 
343178312033 1375068399359910173 891.08026 
343237552076 1375068399423752947 891.1902 
343301675377 1375068399487046404 891.13025 
343363234969 1375068399550858659 891.1602 
343430166146 1375068399614121599 891.1002 
343492122501 1375068399678025408 891.13025 
343556673089 1375068399741349382 891.1602 
343616431978 1375068399805192156 891.1002 
343679883832 1375068399868424577 891.1802 
343743824013 1375068399932297868 891.27014 
343806787540 1375068399995530290 891.2102 
343871490730 1375068400059403581 891.1502 
343934332175 1375068400122727556 891.1502 
344006360254 1375068400186844988 891.12024 
344061327446 1375068400249833269 891.1802 
344125023462 1375068400313767595 891.1502 
344188231155 1375068400376938982 891.12024 
344253117466 1375068400440812273 891.2002 
344315867350 1375068400504310038 891.26013 
344380112735 1375068400568122294 891.17017 
344443991874 1375068400631415751 891.17017 
344506558637 1375068400695289042 891.1402 
344569796848 1375068400758582499 891.1402 
344633614947 1375068400822394755 891.2002 
344696883680 1375068400885718730 891.2002 
344760549176 1375068400949530986 891.17017 
344824001031 1375068401012824443 891.22015 
344887880169 1375068401076667216 891.1902 
344952003472 1375068401139991191 891.1602 
345015058561 1375068401203803447 891.22015 
345078327292 1375068401267127421 891.1902 
345142267473 1375068401330939677 891.13025 
345205444643 1375068401394233134 891.1602 
345269781588 1375068401458254788 891.1902 
345332867198 1375068401521609280 891.1602 
345396502174 1375068401585421536 891.1002 
345459831948 1375068401648684475 891.2102 
345523650045 1375068401712557766 891.1502 
345601843240 1375068401775942776 891.12024 
345680433198 1375068401839724514 891.2402 
345734332176 1375068401903017971 891.12024 
345798882763 1375068401966966051 891.1802 
345911472418 1375068402030106920 891.26013 
345917423890 1375068402094010729 891.1802 
345969613726 1375068402157273668 891.1802 
346035079925 1375068402221055407 891.1502 
346095601823 1375068402284379381 891.23016 
346181486151 1375068402348222155 891.1802 
346243228864 1375068402411607165 891.26013 
346306406035 1375068402475388903 891.2002 
346372970967 1375068402538682360 891.12024 
346438070921 1375068402602525133 891.17017 
346506406035 1375068402665757555 891.1402 
346577304860 1375068402729630846 891.23016 
346634011711 1375068402791337389 891.2002 
346667828285 1375068402856797594 891.1402 
346734332175 1375068402920150172 891.1402 
346799432131 1375068402984176051 891.1402 
346875855143 1375068403047255885 891.17017 
346944892224 1375068403111190211 891.1602 
347006543376 1375068403174392116 891.28015 
347073901839 1375068403238326442 891.1902 
347135064665 1375068403301558864 891.1902 
347202392606 1375068403365371120 891.1902 
347263555432 1375068403428664577 891.1902 
347326366358 1375068403492598903 891.1902 
347385057035 1375068403555861842 891.22015 
347456138982 1375068403619765651 891.1902 
347524046810 1375068403682937038 891.1602 
347629525217 1375068403746840846 891.1602 
347644297077 1375068403810042750 891.13025 
347684767091 1375068403873946559 891.1002 
347748005303 1375068403937209498 891.13025 
347817469670 1375068404000167262 891.2102 
347889925033 1375068404064345729 891.13025 
347983347893 1375068404128249538 891.1602 
348022352930 1375068404192763698 891.1902 
348068865977 1375068404255446803 891.1902 
348130150885 1375068404318618190 891.27014 
348195006675 1375068404382552516 891.27014 
348294075804 1375068404445754420 891.2102 
348320475927 1375068404509627711 891.12024 
348386247329 1375068404572921168 891.1502 
348450370630 1375068404636733424 891.1802 
348511350336 1375068404699965846 891.1802 
348598974324 1375068404763961207 891.23016 
348639657980 1375068404827215940 891.12024 
348702194223 1375068404891089231 891.12024 
348765737639 1375068404954321653 891.2102 
348850187509 1375068405018225462 891.2102 
348915623186 1375068405081427366 891.1802 
348980082214 1375068405145392210 891.1802 
349041580763 1375068405208411009 891.1502 
349106619677 1375068405272528440 891.1502 
349165157752 1375068405335760862 891.1802 
349229250534 1375068405401221067 891.1802 
349297310964 1375068405462836058 891.12024 
349358778993 1375068405526739866 891.23016 
349424733518 1375068405590063841 891.17017 
349487178201 1375068405653906614 891.06024 
349553651571 1375068405717139036 891.17017 
349592656607 1375068405781012327 891.08026 
349702896192 1375068405844244749 891.1102 
349769003318 1375068405908148558 891.17017 
349805688807 1375068405971442015 891.17017 
349874756408 1375068406035254270 891.2002 
349939276476 1375068406098547727 891.1402 
350007428466 1375068406162421018 891.1402 
350069781589 1375068406225622923 891.23016 
350159328360 1375068406289740354 891.17017 
350207123263 1375068406352789671 891.2002 
350272589464 1375068406416754515 891.2002 
350303476080 1375068406479956419 891.1902 
350354811346 1375068406543829710 891.17017 
350420033381 1375068406607977659 891.1402 
350482752746 1375068406670935423 891.1402 
350545502631 1375068406734259397 891.1402 
350617957997 1375068406798071653 891.17017 
350680585800 1375068406861456663 891.1902 
350744617540 1375068406925238401 891.1002 
350800500342 1375068406988531858 891.22015 
350863708033 1375068407052374632 891.1902 
350927800817 1375068407116583616 891.1602 
350992473485 1375068407179632933 891.1602 
351060869638 1375068407242773802 891.22015 
351118370020 1375068407306616575 891.2501 
351183103730 1375068407369940550 891.1602 
351245334771 1375068407433752806 891.2501 
351308511940 1375068407497076780 891.1902 
351372543681 1375068407560919554 891.2402 
351435812413 1375068407624213011 891.1802 
351499630512 1375068407687994749 891.22015 
351568637074 1375068407751379759 891.2102 
351628365442 1375068407816199095 891.1802 
351689925033 1375068407878485472 891.1802 
351754231458 1375068407942633421 891.2102 
351817194986 1375068408005621702 891.2402 
351880982565 1375068408069433958 891.2402 
351944312337 1375068408132757933 891.1802 
352008496680 1375068408196570188 891.2102 
352072497901 1375068408259863645 891.1802 
352136438080 1375068408325110227 891.27014 
352198669121 1375068408386999876 891.23016 
352262548259 1375068408450812132 891.23016 
352325694910 1375068408514166624 891.23016 
352389818211 1375068408578353289 891.2002 
352452964862 1375068408641616229 891.23016 
352516660880 1375068408705459002 891.29016 
352580967304 1375068408768752459 891.1402 
352643869792 1375068408832595233 891.23016 
352706955401 1375068408895919207 891.2002 
352771628069 1375068408959731463 891.1402 
352834225354 1375068409023055438 891.17017 
352897982411 1375068409086867694 891.17017 
352962014153 1375068409150496844 891.2002 
353025221844 1375068409214003924 891.1402 
353088551616 1375068409277297381 891.17017 
353153773653 1375068409341170672 891.1602 
353215394284 1375068409404464129 891.13025 
353279303944 1375068409468276385 891.22015 
353342542155 1375068409531539325 891.1602 
353406543376 1375068409595565203 891.1602 
353469720547 1375068409658736590 891.1902 
353535400388 1375068409722579364 891.1902 
353597356744 1375068409785872821 891.13025 
353661541087 1375068409849685076 891.13025 
353724474094 1375068409912978533 891.1902 
353788200632 1375068409976851825 891.1902 
353852262893 1375068410040114764 891.1002 
353915379024 1375068410103927020 891.12024 
353978647755 1375068410167281512 891.13025 
354042496375 1375068410231093768 891.2102 
354105826147 1375068410294387225 891.1802 
354170041010 1375068410358565692 891.1502 
354233096099 1375068410421553973 891.1802 
354296670035 1375068410485692660 891.12024 
354361129063 1375068410549016634 891.12024 
354424001029 1375068410612859408 891.1002 
354487208720 1375068410676091830 891.12024 
354551850869 1375068410739995638 891.1502 
354614539713 1375068410803411166 891.2102 
354678327291 1375068410867162386 891.12024 
354741748625 1375068410930394808 891.12024 
354805322561 1375068410994268099 891.1802 
354868438690 1375068411057531039 891.2002 
354932561994 1375068411121404330 891.0902 
354995678123 1375068411184728304 891.1502 
355065203532 1375068411248479525 891.17017 
355123131198 1375068411311803500 891.12024 
355186857736 1375068411375676791 891.17017 
355252842781 1375068411438965982 891.06024 
355313608842 1375068411502778238 891.17017 
355377243818 1375068411566407388 891.17017 
355444236035 1375068411629975503 891.17017 
355504269607 1375068411693329995 891.17017 
355571078703 1375068411755311197 891.0902 
355632363610 1375068411820374673 891.17017 
355695235577 1375068411884217447 891.1102 
355761190102 1375068411947510904 891.2002 
355822230847 1375068412011353677 891.17017 
355885591140 1375068412074738687 891.17017 
355949348197 1375068412138520425 891.23016 
356013440979 1375068412201783365 891.1102 
356076953874 1375068412265595620 891.08026 
356141290820 1375068412328889077 891.2002 
356204284868 1375068412392762368 891.17017 
356267431519 1375068412455994790 891.1602 
356333782807 1375068412519868081 891.1402 
356394640430 1375068412583192056 891.08026 
356459984548 1375068412647004312 891.1902 
356521849342 1375068412710297769 891.1902 
356585484319 1375068412774171060 891.2501 
356648875131 1375068412837495034 891.22015 
356713334158 1375068412901276773 891.22015 
356774954791 1375068412963532632 891.1602 
356839871622 1375068413028413003 891.1902 
356903140354 1375068413091675943 891.1602 
356967751982 1375068413155457681 891.1902 
357030166143 1375068413218903726 891.1902 
357098470738 1375068413282685464 891.1002 
357157832861 1375068413346245012 891.13025 
357222688652 1375068413410148821 891.1602 
357342389553 1375068413473411760 891.2102 
357367629901 1375068413537224016 891.12024 
357411914961 1375068413600547991 891.1802 
357475244733 1375068413664390764 891.1802 
357538513465 1375068413727623186 891.1602 
357602362085 1375068413791557512 891.2102 
357680463717 1375068413854789934 891.1802 
357739306995 1375068413918632707 891.2102 
357802270523 1375068413981956682 891.1802 
357858702692 1375068414045768938 891.1502 
357920262284 1375068414109062395 891.1802 
357983775178 1375068414172538957 891.26013 
358047562756 1375068414236259661 891.2402 
358112571148 1375068414300189774 891.2402 
358175443116 1375068414364581864 891.12024 
358238467686 1375068414427295487 891.26013 
358302316304 1375068414490863603 891.0902 
358365951280 1375068414554462235 891.2002 
358428792726 1375068414617725175 891.1802 
358493587477 1375068414681567948 891.17017 
358556001639 1375068414744861405 891.26013 
358619880778 1375068414808748251 891.1402 
358683668356 1375068414872835165 891.17017 
358746845526 1375068414935823447 891.1402 
358810114258 1375068414999177939 891.1102 
358873993399 1375068415062990195 891.2501 
358937140048 1375068415126283652 891.17017 
359001507514 1375068415190126425 891.08026 
359064684685 1375068415253450400 891.2002 
359128472262 1375068415317262656 891.08026 
359193114412 1375068415380586630 891.1402 
359258885814 1375068415444429404 891.1402 
359318797305 1375068415507692343 891.1402 
359389085722 1375068415572725302 891.1402 
359446036736 1375068415634828574 891.2002 
359512174383 1375068415700502402 891.1402 
359573733975 1375068415762115611 891.2002 
359637124788 1375068415826019420 891.17017 
359700363001 1375068415889251842 891.2002 
359764181099 1375068415953094615 891.1402 
359827419309 1375068416016418590 891.22015 
359892854988 1375068416081482066 891.1602 
359954750304 1375068416143524302 891.1602 
360018507362 1375068416207397593 891.1002 
360081776093 1375068416270707093 891.1602 
360145685752 1375068416334519348 891.1602 
360208923966 1375068416397843323 891.1602 
360273077787 1375068416461655579 891.13025 
360340253126 1375068416524918518 891.1902 
360410175299 1375068416588913880 891.1902 
360462975543 1375068416652146301 891.13025 
360527556653 1375068416715958557 891.27014 
360590062375 1375068416779190979 891.1602 
360658275406 1375068416843064270 891.22015 
360718705743 1375068416906601868 891.2102 
360781547189 1375068416970231018 891.2102 
360844236035 1375068417033493958 891.2102 
360908084653 1375068417097336731 891.12024 
360971750150 1375068417160599671 891.2102 
361037826756 1375068417224529757 891.12024 
361098928541 1375068417287823214 891.1502 
361169674765 1375068417351635470 891.1802 
361225984852 1375068417414959445 891.1802 
361290627001 1375068417478771701 891.1502 
361353590529 1375068417542004122 891.1802 
361416950822 1375068417605938449 891.2102 
361485346976 1375068417669201388 891.0902 
361544251294 1375068417733074679 891.12024 
361607458987 1375068417796368136 891.1802 
361671399166 1375068417860180392 891.2102 
361734576338 1375068417923473849 891.1802 
361798577558 1375068417987316622 891.23016 
361862975545 1375068418050610079 891.2402 
361925878031 1375068418114758029 891.08026 
361988963640 1375068418177776828 891.2002 
362053117463 1375068418241619601 891.23016 
362117118684 1375068418304913058 891.26013 
362180082212 1375068418368694796 891.2002 
362243320424 1375068418432049288 891.17017 
362307138522 1375068418495922579 891.17017 
362370376734 1375068418559155001 891.1402 
362434469515 1375068418623150363 891.17017 
362497616167 1375068418686321749 891.23016 
362561434265 1375068418750134005 891.2002 
362624611435 1375068418813457980 891.26013 
362691756254 1375068418877270236 891.22015 
362755299670 1375068418940533175 891.08026 
362815668966 1375068419004436984 891.1102 
362879364984 1375068419067699923 891.1902 
362942389552 1375068419131717311 891.13025 
363006146609 1375068419195010768 891.22015 
363076343467 1375068419258914577 891.1602 
363134088011 1375068419322482692 891.1602 
363196776856 1375068419386020290 891.1902 
363270727718 1375068419449344264 891.1602 
363323894206 1375068419513156520 891.22015 
363387223979 1375068419576449977 891.13025 
363451896648 1375068419640353786 891.1602 
363514707575 1375068419703555690 891.1002 
363591100066 1375068419767428981 891.1902 
363641824926 1375068419830752956 891.13025 
363705765106 1375068419894595729 891.13025 
363769003316 1375068419957828151 891.13025 
363835537728 1375068420021731960 891.1902 
363895845984 1375068420085082187 891.1002 
363960915418 1375068420148955478 891.2402 
364023726345 1375068420212248935 891.1602 
364090932205 1375068420276091709 891.12024 
364150416411 1375068420339354648 891.2102 
364214448151 1375068420403258457 891.1502 
364277228558 1375068420466551914 891.2102 
364341107696 1375068420530364170 891.1802 
364406879098 1375068420593734712 891.27014 
364468621811 1375068420657546968 891.27014 
364530150882 1375068420718978853 891.2102 
364596746336 1375068420784652681 891.2402 
364659068935 1375068420848007173 891.1802 
364724199411 1375068420911880464 891.2102 
364785789522 1375068420975051851 891.1502 
364853392146 1375068421039077730 891.1802 
364914402370 1375068421102249116 891.12024 
364977243817 1375068421166061372 891.1502 
365040543069 1375068421229385347 891.12024 
365104361168 1375068421293197603 891.2102 
365167477297 1375068421356491060 891.1802 
365237094268 1375068421420333833 891.2102 
365295296617 1375068421483627290 891.17017 
365358626390 1375068421547648948 891.1502 
365421834080 1375068421610911888 891.12024 
365485865823 1375068421674785179 891.1802 
365551026817 1375068421738078636 891.26013 
365613196815 1375068421801921409 891.23016 
365676251905 1375068421865184349 891.23016 
365739062830 1375068421927928489 891.23016 
365803430297 1375068421992320579 891.2002 
365867156833 1375068422056209914 891.29016 
365932623032 1375068422120113723 891.17017 
365994426786 1375068422183315627 891.28015 
366057573437 1375068422246639602 891.17017 
366121666219 1375068422310451857 891.17017 
366184843390 1375068422373745314 891.1902 
366248722529 1375068422437618605 891.22015 
366312937392 1375068422500912062 891.22015 
366375443116 1375068422564724318 891.13025 
366477961045 1375068422628017775 891.1602 
366539368035 1375068422691891066 891.1902 
366598852241 1375068422755123488 891.13025 
366658977373 1375068422819027297 891.2501 
366717576489 1375068422882290236 891.1902 
366804437469 1375068422946163527 891.28015 
366836422819 1375068423009452785 891.22015 
366884828129 1375068423073295559 891.1902 
366947791657 1375068423136131252 891.27014 
367011640277 1375068423200431789 891.2102 
367076648669 1375068423263786281 891.2402 
367165707116 1375068423328636135 891.1602 
367213563060 1375068423390800442 891.2402 
367267400996 1375068423454673733 891.2402 
367334332174 1375068423517997707 891.27014 
367392961808 1375068423581809963 891.1802 
367456138979 1375068423645133938 891.2102 
367520140200 1375068423708976711 891.1502 
367583592054 1375068423772270168 891.1802 
367647135470 1375068423836082424 891.1502 
367710495762 1375068423899406399 891.1802 
367774313861 1375068423963218654 891.2102 
367837613113 1375068424026542629 891.1802 
367901614333 1375068424090385403 891.1502 
367964944107 1375068424153617824 891.1502 
368028701164 1375068424217521633 891.23016 
368092275100 1375068424280845608 891.12024 
368157130892 1375068424344657863 891.23016 
368220735347 1375068424407890285 891.2002 
368284950211 1375068424471763576 891.17017 
368349073512 1375068424535911526 891.17017 
368411731837 1375068424599204983 891.1502 
368475305774 1375068424662254299 891.2002 
368538849188 1375068424726005520 891.1502 
368600347739 1375068424787742580 891.1502 
368665569774 1375068424853141750 891.12024 
368728869028 1375068424916607104 891.1402 
368792809207 1375068424980510912 891.2002 
368855833775 1375068425044903002 891.23016 
368919926556 1375068425107616625 891.17017 
368982920607 1375068425170604906 891.1402 
369047318592 1375068425234783373 891.1402 
369109915875 1375068425298015795 891.2002 
369174161259 1375068425362346850 891.23016 
369238131958 1375068425425914965 891.2002 
369301522774 1375068425489116869 891.2501 
369364608383 1375068425552410326 891.26013 
369428487521 1375068425616192065 891.23016 
369490871163 1375068425679424486 891.22015 
369557222452 1375068425743297777 891.1902 
369619331411 1375068425806896410 891.1402 
369683057948 1375068425870825836 891.1902 
369746082516 1375068425933783599 891.1602 
369819758695 1375068425996863433 891.1602 
369881440369 1375068426061102935 891.22015 
369945899395 1375068426124945709 891.1902 
370014448150 1375068426188452789 891.1902 
370081531928 1375068426253546783 891.1602 
370142267469 1375068426315344879 891.13025 
370206634936 1375068426379248687 891.1902 
370263830113 1375068426442481109 891.22015 
370326824161 1375068426506384918 891.1902 
370395708641 1375068426569647857 891.2501 
370459862464 1375068426633826324 891.2501 
370520720087 1375068426696753570 891.22015 
370597387263 1375068426760657379 891.1902 
370635324085 1375068426822272369 891.13025 
370701003925 1375068426887610504 891.1602 
370764181098 1375068426950903961 891.13025 
370838589766 1375068427014746734 891.1902 
370917515448 1375068427078894683 891.2102 
370977610061 1375068427142127105 891.1602 
371037613114 1375068427205176422 891.13025 
371095693381 1375068427269202301 891.2102 
371161769989 1375068427332465240 891.1802 
371228701165 1375068427396979400 891.1602 
371275794099 1375068427460120269 891.1602 
371335491947 1375068427523383209 891.1602 
371401354912 1375068427586585113 891.1602 
371462792420 1375068427650427887 891.1802 
371525481264 1375068427713985119 891.2102 
371591496830 1375068427777919445 891.27014 
371665325611 1375068427841365490 891.1802 
371728319659 1375068427905421887 891.1802 
371791039025 1375068427968501721 891.2102 
