#SysTm EventTmStmp Pressure
156117013011379 1375030619029529125 888.85144 
156117073380675 1375030619093738110 888.7715 
156117087267445 1375030619156665356 888.7715 
156117098376861 1375030619220538647 888.6216 
156117111592182 1375030619283832104 888.73157 
156117127157572 1375030619347705395 888.9014 
156117138053344 1375030619410937817 888.8915 
156117188534040 1375030619474841625 888.86145 
156117217864118 1375030619538104565 888.7815 
156117250398835 1375030619601947338 888.86145 
156117331003139 1375030619665210278 888.9414 
156117377760349 1375030619729114086 888.8315 
156117443012906 1375030619792346508 888.72156 
156117512019467 1375030619856219799 888.72156 
156117569764012 1375030619919543774 888.73157 
156117645393494 1375030619983325512 888.8215 
156117702832835 1375030620046649487 888.7915 
156117762439122 1375030620110522778 888.7915 
156117822442175 1375030620173816235 888.8415 
156117886687558 1375030620237628491 888.92145 
156117955785682 1375030620301257641 888.86145 
156118013316583 1375030620364764721 888.76154 
156118076829477 1375030620428088696 888.86145 
156118191128272 1375030620492143748 888.6316 
156118229034574 1375030620555406688 888.8015 
156118287938893 1375030620619249461 888.8815 
156118373395935 1375030620682512401 888.57166 
156118433887315 1375030620746416209 888.8215 
156118466055787 1375030620809648631 888.9014 
156118524776982 1375030620873552440 888.7815 
156118654213882 1375030620936845897 888.85144 
156118662149178 1375030621000658153 888.71155 
156118712233111 1375030621063951610 888.9014 
156118786214492 1375030621127824901 888.8915 
156118854244401 1375030621191057322 888.92145 
156118954198622 1375030621254900096 888.8315 
156118996835581 1375030621318269203 888.8015 
156119111714263 1375030621382081459 888.91144 
156119184810556 1375030621445344398 888.8015 
156119191067232 1375030621509522865 888.8215 
156119240815439 1375030621572480629 888.6716 
156119362011838 1375030621636384437 888.85144 
156119368054871 1375030621697755287 888.85144 
156119412339931 1375030621763520668 888.9014 
156119504023129 1375030621826753090 888.8415 
156119546324365 1375030621890626381 888.6716 
156119606205336 1375030621953950355 888.8115 
156119667887009 1375030622017762611 888.7515 
156119730240129 1375030622081086586 888.92145 
156119794271872 1375030622144929359 888.7715 
156119856960716 1375030622208161781 888.7715 
156119940556015 1375030622272004555 888.8815 
156119983833903 1375030622335328529 888.97144 
156120047774083 1375030622399232338 888.8215 
156120110829172 1375030622462434242 888.6016 
156120293859845 1375030622526338051 888.85144 
156120315956594 1375030622589600990 888.7915 
156120387282705 1375030622653443764 888.76154 
156120399765537 1375030622716737221 888.8215 
156120497674891 1375030622780610512 888.92145 
156120552642083 1375030622843873451 888.86145 
156120622198011 1375030622906587074 888.76154 
156120660531599 1375030622971191570 888.86145 
156120701215254 1375030623035034343 888.6716 
156120747941945 1375030623098388836 888.8815 
156120813041899 1375030623162231609 888.72156 
156120874479409 1375030623225494549 888.9414 
156120938541670 1375030623289337322 888.7915 
156121007670313 1375030623352661297 888.7415 
156121074204725 1375030623416473552 888.76154 
156121134726625 1375030623479797527 888.85144 
156121192043883 1375030623543640300 888.8415 
156121312324670 1375030623606903240 888.8415 
156121346141243 1375030623670715496 888.8415 
156121434314599 1375030623734039470 888.87146 
156121495721588 1375030623797866326 888.87146 
156121565277517 1375030623861098748 888.8115 
156121607700834 1375030623925033074 888.8315 
156121636664667 1375030623988265496 888.7415 
156121700543806 1375030624052138787 888.8315 
156121763354734 1375030624114943963 888.8815 
156121879759433 1375030624179275017 888.85144 
156121962591724 1375030624242537957 888.8215 
156121995401124 1375030624306838494 888.8815 
156122066910357 1375030624369704705 888.6915 
156122144645745 1375030624433547478 888.7915 
156122182704649 1375030624496779900 888.85144 
156122268497415 1375030624560714226 888.85144 
156122302832834 1375030624623946648 888.8415 
156122367658105 1375030624687819939 888.9014 
156122438862134 1375030624751143914 888.6416 
156122513026639 1375030624816054802 888.8015 
156122545225631 1375030624878249627 888.8315 
156122590823068 1375030624942122918 888.8915 
156122684947897 1375030625005416375 888.92145 
156122726425083 1375030625069228631 888.91144 
156122784505351 1375030625132552605 888.66156 
156122871305289 1375030625196364861 888.6416 
156122924349698 1375030625259627800 888.9414 
156122992013362 1375030625323531609 889.0014 
156123037305595 1375030625386794548 888.8115 
156123100543806 1375030625450877884 888.7915 
156123163598896 1375030625515300491 888.9314 
156123226837108 1375030625578014114 888.8115 
156123309455755 1375030625641582230 888.8415 
156123354168101 1375030625705180862 888.6716 
156123423540906 1375030625768474319 888.8915 
156123496331995 1375030625832286575 888.9814 
156123544065858 1375030625895580032 888.8915 
156123608189160 1375030625959453323 888.86145 
156123672404023 1375030626024120071 888.7815 
156123735123388 1375030626086589554 888.92145 
156123799338253 1375030626149852493 888.7415 
156123865811623 1375030626213725784 888.8815 
156123954442784 1375030626276944612 888.7515 
156123989266528 1375030626340848421 888.8215 
156124052687864 1375030626404080843 888.7415 
156124117818338 1375030626467954134 888.6316 
156124180140937 1375030626531217073 888.6816 
156124248781255 1375030626595090364 888.7415 
156124307960256 1375030626658353304 888.6816 
156124371869918 1375030626723416780 888.9014 
156124434223038 1375030626785489534 888.8415 
156124498437900 1375030626849668001 888.8115 
156124567444462 1375030626912625765 888.8415 
156124625158487 1375030626976560091 888.9614 
156124688274618 1375030627039761995 888.8415 
156124752153756 1375030627103665804 888.70154 
156124815544569 1375030627166898225 888.8315 
156124880430881 1375030627231748079 888.6416 
156124942692441 1375030627294034456 888.56165 
156125012553574 1375030627357968782 888.86145 
156125069626669 1375030627421201204 888.8215 
156125140830697 1375030627485043977 888.76154 
156125233521068 1375030627548337434 888.7515 
156125261416690 1375030627612210725 888.8415 
156125324075013 1375030627675443147 888.8415 
156125387984673 1375030627739346956 888.8415 
156125459036099 1375030627802640413 888.73157 
156125532529158 1375030627866452669 888.5416 
156125589846416 1375030627929928063 888.8115 
156125646675349 1375030627993831872 888.8315 
156125712690914 1375030628057399987 888.86145 
156125769184124 1375030628120937585 888.8315 
156125837366635 1375030628184231042 888.8315 
156125908540143 1375030628248073815 889.0414 
156125960272175 1375030628311336755 888.6216 
156126023632468 1375030628375210046 888.8915 
156126087542129 1375030628438503503 888.8015 
156126151207624 1375030628502346276 888.6915 
156126214354274 1375030628565670251 888.8315 
156126292333826 1375030628629482507 888.85144 
156126342570359 1375030628692714929 888.71155 
156126407090426 1375030628756663893 888.8215 
156126469016262 1375030628819896315 888.85144 
156126532162911 1375030628883769606 888.9014 
156126596042052 1375030628947032545 888.9014 
156126710523969 1375030629010936354 888.87146 
156126723067842 1375030629074168776 888.9014 
156126789907456 1375030629138072584 888.92145 
156126849971549 1375030629201335524 888.8915 
156126914125372 1375030629265208815 888.8315 
156126977790868 1375030629328471754 888.8315 
156127048415010 1375030629392345045 888.6716 
156127104572495 1375030629455638502 888.8915 
156127168299032 1375030629519450758 888.92145 
156127235504893 1375030629582744215 888.9414 
156127296179392 1375030629646586988 888.8815 
156127379713652 1375030629709849928 888.85144 
156127423357784 1375030629773753736 888.97144 
156127485710906 1375030629837016676 888.86145 
156127549498483 1375030629900828932 888.6016 
156127614293233 1375030629964183424 888.7915 
156127682597826 1375030630028117750 888.85144 
156127747758822 1375030630091258619 889.02136 
156127808616445 1375030630155162428 888.8115 
156127867093478 1375030630218394850 888.8115 
156127931277822 1375030630282298658 888.87146 
156127994149788 1375030630345531080 888.87146 
156128076219069 1375030630409647275 888.7515 
156128122335353 1375030630472879697 888.7815 
156128185298880 1375030630536752988 888.7815 
156128248323449 1375030630600046445 888.86145 
156128310432406 1375030630662027646 888.5816 
156128375532361 1375030630727182675 888.8215 
156128440815437 1375030630791055966 888.7515 
156128512446752 1375030630854593564 888.8215 
156128567413942 1375030630918161679 888.85144 
156128632483377 1375030630981485654 888.8215 
156128728286824 1375030631045297910 888.8215 
156128760150093 1375030631108560849 888.8215 
156128821984367 1375030631172495175 888.6216 
156128889953236 1375030631235894765 888.85144 
156128955541517 1375030631299707020 888.87146 
156129027172831 1375030631363000478 888.8415 
156129075730743 1375030631426843251 888.7815 
156129139029996 1375030631490136708 888.76154 
156129208677485 1375030631553979481 888.7815 
156129275181377 1375030631617272938 888.8315 
156129370465978 1375030631681156549 888.8315 
156129392654289 1375030631744419489 888.8915 
156129458242569 1375030631808292780 888.86145 
156129521450261 1375030631870365534 888.7815 
156129583711821 1375030631935398493 888.8015 
156129691631857 1375030631998722467 888.8815 
156129761615070 1375030632062717829 888.7815 
156129835993218 1375030632125767145 888.86145 
156129875333977 1375030632189701471 888.85144 
156129915102024 1375030632252933893 888.8015 
156129982857250 1375030632316807184 888.8215 
156130028485207 1375030632380131159 888.71155 
156130092364345 1375030632443943415 888.9414 
156130156274005 1375030632507281971 888.91144 
156130228424166 1375030632571185780 888.66156 
156130283574479 1375030632634479237 888.9014 
156130347178935 1375030632698291493 888.8115 
156130462881666 1375030632761554432 888.87146 
156130509364193 1375030632825458241 888.9314 
156130574647270 1375030632888690663 888.8115 
156130634802924 1375030632952594471 888.8415 
156130749895248 1375030633015887928 888.8415 
156130812309409 1375030633079211903 888.87146 
156130863217391 1375030633142993641 888.73157 
156130869535108 1375030633206866932 888.9614 
156130922213270 1375030633271228504 888.7515 
156130982338403 1375030633333972645 888.7815 
156131046095461 1375030633397296620 888.8315 
156131110890212 1375030633461108875 888.9514 
156131173029690 1375030633524371815 888.8315 
156131237397155 1375030633588275624 888.8915 
156131301734100 1375030633651538563 888.8915 
156131368299033 1375030633715381336 888.8915 
156131427111790 1375030633778705311 888.86145 
156131491265613 1375030633842548084 888.6915 
156131555968801 1375030633905811024 888.85144 
156131618169320 1375030633969684315 888.5816 
156131721022976 1375030634032947254 888.72156 
156131781178629 1375030634096790028 888.9414 
156131847621480 1375030634160234708 888.97144 
156131934085694 1375030634224138517 888.8415 
156131975929125 1375030634287340421 888.85144 
156132048933856 1375030634351244230 888.7915 
156132165613239 1375030634414568204 888.9614 
156132173884260 1375030634480089445 888.87146 
156132239594622 1375030634541643400 888.40173 
156132296057312 1375030634605547208 888.9614 
156132343821694 1375030634668810148 888.9014 
156132399673974 1375030634732622404 888.9014 
156132467337640 1375030634795976896 888.9014 
156132545256151 1375030634859789152 888.92145 
156132607181987 1375030634923052091 888.7815 
156132693768283 1375030634987458880 888.86145 
156132727462774 1375030635050264056 888.8915 
156132815422487 1375030635114106830 888.8915 
156132877134679 1375030635177430804 888.9314 
156132889525950 1375030635241273578 888.6516 
156132953038846 1375030635304505999 888.8915 
156133024731200 1375030635368409808 888.73157 
156133087664208 1375030635431672748 888.56165 
156133153252488 1375030635495607074 888.86145 
156133214628958 1375030635558808978 888.91144 
156133278965902 1375030635622651751 888.8315 
156133343180765 1375030635686952289 888.9414 
156133405869612 1375030635749787982 888.66156 
156133479667871 1375030635813417132 888.9414 
156133528866711 1375030635876893695 888.86145 
156133588595079 1375030635940217669 888.7415 
156133656563948 1375030636004090960 888.7915 
156133723830851 1375030636067353900 888.8815 
156133780598743 1375030636131196673 888.71155 
156133844416840 1375030636195924457 888.9414 
156133907655051 1375030636258363421 888.8815 
156133971564711 1375030636321626361 888.9014 
156134034528241 1375030636385469134 888.8215 
156134097095004 1375030636448793109 888.85144 
156134186122929 1375030636512605365 888.8215 
156134224273394 1375030636575868304 888.7415 
156134288610341 1375030636639953933 888.7915 
156134352214796 1375030636703216872 888.7915 
156134432666496 1375030636767059646 888.8315 
156134479057463 1375030636830383620 888.7915 
156134544248978 1375030636894195876 888.87146 
156134606449497 1375030636957489333 888.9014 
156134670725401 1375030637021667800 888.7815 
156134736405242 1375030637084656081 888.7815 
156134796774539 1375030637148498855 888.87146 
156134862393341 1375030637211761794 888.86145 
156134931705106 1375030637275665603 888.8915 
156134987404786 1375030637338867507 888.7815 
156135051802771 1375030637402801833 888.76154 
156135114827339 1375030637466109880 888.85144 
156135182185801 1375030637529922135 888.8915 
156135242371975 1375030637593215592 888.72156 
156135308173897 1375030637657088884 888.86145 
156135370984825 1375030637720321305 888.86145 
156135433429506 1375030637784194596 888.8015 
156135514552656 1375030637847518571 888.86145 
156135562194957 1375030637911361344 888.6416 
156135624395477 1375030637974685319 888.9414 
156135686809638 1375030638038497575 888.7515 
156135752031673 1375030638101760514 888.7715 
156135813926988 1375030638165603288 888.6116 
156135879210064 1375030638229201921 888.72156 
156135944493142 1375030638292770036 888.8815 
156136010142462 1375030638356032975 888.8215 
156136071274769 1375030638419906266 888.85144 
156136132254472 1375030638483138688 888.8815 
156136208128117 1375030638547011979 888.85144 
156136258669855 1375030638610305436 888.71155 
156136328103701 1375030638674178727 888.76154 
156136385817725 1375030638737411149 888.9314 
156136453695033 1375030638801284440 888.8815 
156136512996117 1375030638864577897 888.7715 
156136576875256 1375030638928420671 888.9014 
156136642219374 1375030638991683610 888.8815 
156136704419892 1375030639055587419 888.8415 
156136769489326 1375030639119001754 888.87146 
156136831659325 1375030639182844527 889.02136 
156136894714413 1375030639246168502 888.8115 
156136958379910 1375030639309950240 888.9314 
156137022961018 1375030639373243697 888.73157 
156137086199229 1375030639437422164 888.9014 
156137150139410 1375030639500379928 888.70154 
156137212858775 1375030639564222701 888.8915 
156137276463232 1375030639627546676 888.9514 
156137341990470 1375030639691358931 888.86145 
156137404557235 1375030639754652388 888.8315 
156137487908371 1375030639818495162 888.8915 
156137530392728 1375030639881788619 888.76154 
156137594210827 1375030639945798606 888.8915 
156137657540600 1375030640009061546 888.92145 
156137722274311 1375030640072965354 888.86145 
156137784718992 1375030640136228294 888.97144 
156137848567611 1375030640200071067 888.8315 
156137912019465 1375030640263395042 888.8915 
156137976081726 1375030640327146263 888.8315 
156138039442020 1375030640390480484 888.92145 
156138114461094 1375030640454384292 888.9414 
156138165887922 1375030640517647232 888.9514 
156138230560590 1375030640581459488 889.0014 
156138293035793 1375030640644783462 888.8315 
156138357098055 1375030640708595718 888.7715 
156138421679162 1375030640771889175 888.66156 
156138483604999 1375030640834389175 888.91144 
156138548979636 1375030640899055923 888.85144 
156138612217847 1375030640962868179 888.8215 
156138676524272 1375030641026741470 888.8815 
156138738389066 1375030641090034927 888.6316 
156138801627278 1375030641153267349 888.85144 
156138865536938 1375030641217246740 888.86145 
156138932254471 1375030641280479162 888.8215 
156138994393950 1375030641344291417 888.8815 
156139058425690 1375030641408652990 888.9914 
156139123464604 1375030641472160070 888.9314 
156139185024195 1375030641535178869 888.87146 
156139248415008 1375030641598594396 888.87146 
156139309760957 1375030641659995763 888.7815 
156139420885633 1375030641725761144 888.9314 
156139438312765 1375030641789024083 888.87146 
156139502649711 1375030641852866857 888.91144 
156139565857402 1375030641916831701 888.9014 
156139629950184 1375030641980033605 888.7915 
156139692364344 1375030642042655675 888.73157 
156139756426606 1375030642106132238 888.9014 
156139820397308 1375030642170402257 888.87146 
156139885039455 1375030642234916417 888.8415 
156139947850382 1375030642299216954 888.9314 
156140013011376 1375030642361747472 888.7515 
156140079423706 1375030642424735753 888.8015 
156140138328026 1375030642488548009 888.9314 
156140201413635 1375030642551841466 888.6716 
156140265323295 1375030642615714757 888.87146 
156140328866709 1375030642679282872 888.9014 
156140392349084 1375030642743461339 888.8115 
156140455709378 1375030642806144445 888.70154 
156140518489783 1375030642868913902 888.8315 
156140583162452 1375030642933397545 888.86145 
156140646797429 1375030642997270836 888.8915 
156140712660392 1375030643061052574 888.8415 
156140775288197 1375030643126268639 888.9814 
156140837275072 1375030643187670006 888.8315 
156140903595842 1375030643251604332 888.56165 
156140964483985 1375030643314806236 888.8115 
156141037122470 1375030643378679527 888.86145 
156141095507943 1375030643444139733 888.6915 
156141167291858 1375030643506273522 888.92145 
156141227600114 1375030643569353356 888.92145 
156141282475744 1375030643633117448 888.92145 
156141344096375 1375030643694518815 888.8015 
156141451436525 1375030643760101091 888.8815 
156141472892347 1375030643823364030 888.6915 
156141536588364 1375030643887237321 888.92145 
156141600650626 1375030643951873552 888.86145 
156141663461552 1375030644014373552 888.8015 
156141732407073 1375030644077270280 888.97144 
156141805564406 1375030644141692888 888.8315 
156141867887005 1375030644204925310 888.85144 
156141932834358 1375030644269744646 888.85144 
156142006663140 1375030644332336198 888.85144 
156142074662528 1375030644395995866 888.76154 
156142134055173 1375030644459106218 888.8215 
156142179927292 1375030644522918474 888.91144 
156142235596453 1375030644586181413 888.66156 
156142299689234 1375030644650054704 888.7915 
156142364880749 1375030644713317644 888.97144 
156142452413177 1375030644777679216 888.8215 
156142503168557 1375030644840606462 888.6816 
156142573701137 1375030644903442155 888.8815 
156142623998710 1375030644967559587 888.85144 
156142692700069 1375030645031463396 888.8815 
156142755633077 1375030645095580827 888.8415 
156142836695185 1375030645160400163 888.8415 
156142936740965 1375030645221862565 888.87146 
156142952977803 1375030645285974884 888.9314 
156142998636281 1375030645349237824 888.87146 
156143062515421 1375030645413111115 888.8115 
156143128195262 1375030645478296662 888.76154 
156143189174965 1375030645540552521 888.70154 
156143257082793 1375030645603510285 888.9314 
156143328378385 1375030645667414093 888.9314 
156143393814063 1375030645729151154 888.87146 
156143453786594 1375030645794702912 888.9314 
156143515407225 1375030645857935334 888.7815 
156143575654440 1375030645920404816 888.9014 
156143633215864 1375030645984949494 888.8115 
156143697095003 1375030646048865849 888.86145 
156143760485815 1375030646112250859 888.6416 
156143824273393 1375030646175971562 888.8115 
156143902680229 1375030646239265019 888.8915 
156143979988333 1375030646303168828 888.6915 
