#SysTm EventTmStmp Pressure
36536012204674 36535590486000 1001.9895 
36536101508884 36535630528000 1002.1017 
36536122149175 36535670539000 1001.957 
36536141718342 36535710533000 1002.05 
36536161404425 36535750625000 1002.16644 
36536180281967 36535790640000 1002.03845 
36536203529925 36535830636000 1002.1097 
36536231764967 36535870649000 1002.0563 
36536271886175 36535910683000 1002.0004 
36536290814967 36535950668000 1002.1135 
36536308514425 36535990836000 1002.0315 
36536328495133 36536030588000 1002.043 
36536346523009 36536071665000 1002.01154 
36536420770675 36536110546000 1002.0251 
36536444108800 36536150528000 1002.01666 
36536476177425 36536190575000 1002.0393 
36536499918592 36536230558000 1002.0843 
36536516852300 36536270522000 1002.09424 
36536532634425 36536310531000 1002.017 
36536563570342 36536350524000 1001.98 
36536606592550 36536390573000 1002.0186 
36536671748967 36536430523000 1001.98596 
36536692879967 36536470534000 1002.0352 
36536716305050 36536510496000 1002.027 
36536731773675 36536550481000 1002.0239 
36536748789217 36536590520000 1002.10284 
36536766057884 36536630512000 1002.1024 
36536816309634 36536670511000 1001.96747 
36536834290092 36536710678000 1001.9596 
36536854960633 36536750488000 1002.0838 
36536875345134 36536790496000 1001.99756 
36536925434800 36536830548000 1001.97705 
36536943225175 36536870511000 1001.9973 
36536961390175 36536910537000 1001.97736 
36537063815800 36536950514000 1001.976 
36537089099550 36536990517000 1001.95325 
36537113180216 36537030522000 1002.125 
36537172803800 36537070534000 1002.0163 
36537187241966 36537110563000 1002.0753 
36537203937050 36537150686000 1002.08887 
36537249654133 36537190498000 1002.0669 
36537266389425 36537230549000 1001.9916 
36537333421968 36537270512000 1002.0274 
36537349044592 36537310644000 1002.0787 
36537392237593 36537350501000 1002.08527 
36537433921884 36537390503000 1002.0445 
36537469959717 36537430517000 1002.05133 
36537513960800 36537470518000 1002.0365 
36537530117092 36537510516000 1001.99713 
36537586114134 36537550521000 1001.9919 
36537629316842 36537590502000 1002.0699 
36537670785967 36537630499000 1002.0089 
36537711694801 36537670504000 1001.96094 
36537753607009 36537710520000 1002.0211 
36537771042051 36537750537000 1002.12213 
36537827090009 36537790519000 1002.0623 
36537867241009 36537830499000 1002.02997 
36537908898426 36537870507000 1002.0775 
36537950207676 36537910534000 1002.0539 
36538006278468 36537950514000 1002.01764 
36538019538593 36537990547000 1002.06067 
36538065886426 36538030499000 1002.1194 
36538109730884 36538070502000 1001.9974 
36538171440468 36538110539000 1002.0644 
36538185868343 36538150513000 1002.08466 
36538227009885 36538190501000 1002.0995 
36538269197509 36538230524000 1002.03577 
36538319790426 36538270503000 1002.0803 
36538336036551 36538312053000 1002.12427 
36538382508218 36538350800000 1002.16925 
36538431248801 36538390499000 1002.2087 
36538474450551 36538430498000 1002.19135 
36538530075384 36538470524000 1002.0802 
36538547461676 36538510554000 1002.0622 
36538589487217 36538550489000 1002.0874 
36538649373592 36538590497000 1002.0999 
36538670759343 36538630531000 1001.9884 
36538737321592 36538670531000 1001.9894 
36538754061634 36538710567000 1001.99896 
36538795969676 36538750488000 1002.0571 
36538835202593 36538790513000 1002.00885 
36538851026759 36538830510000 1001.95435 
36538901752926 36538870533000 1002.0042 
36538954516759 36538910513000 1001.9418 
36539000309634 36538950503000 1001.93164 
36539015497843 36538990577000 1002.0281 
36539058277384 36539030605000 1002.0123 
36539103488718 36539070501000 1002.1012 
36539147533093 36539110507000 1002.0956 
36539207915468 36539150498000 1002.05585 
36539235988426 36539190512000 1002.0992 
36539296810468 36539230511000 1002.076 
36539349705051 36539270527000 1002.0149 
36539371771926 36539310519000 1002.07916 
36539419836926 36539350531000 1002.159 
36539437572634 36539390860000 1001.9422 
36539482417051 36539430510000 1002.07 
36539500122759 36539470508000 1002.10333 
36539578912759 36539510517000 1002.1572 
36539621352843 36539550498000 1001.99023 
36539640485884 36539590485000 1002.0222 
36539685409343 36539630531000 1002.124 
36539704735801 36539670536000 1001.98706 
36539755081593 36539710503000 1001.99286 
36539793641176 36539750509000 1002.0819 
36539857857218 36539790506000 1002.11255 
36539902401134 36539830547000 1002.06354 
36539946715134 36539870506000 1002.144 
36539964190051 36539910497000 1002.10974 
36540008279051 36539950540000 1002.0709 
36540023355676 36539990588000 1002.013 
36540077582718 36540030517000 1002.08185 
36540121074343 36540070509000 1001.9652 
36540139284343 36540110702000 1002.05194 
36540179891634 36540150523000 1002.0318 
36540223851718 36540190526000 1002.01465 
36540264028218 36540230523000 1001.9734 
36540304933968 36540270494000 1001.9272 
36540344793344 36540310491000 1001.9106 
36540419732094 36540350497000 1002.00354 
36540436328302 36540390502000 1002.0251 
36540479877635 36540430511000 1002.09393 
36540495984802 36540470519000 1002.0944 
36540535069136 36540510622000 1002.0407 
36540571342136 36540550666000 1002.153 
36540627489927 36540590519000 1001.98895 
36540670417928 36540630491000 1002.02716 
36540709471010 36540670505000 1002.06903 
36540749850052 36540710513000 1002.04895 
36540791722136 36540750513000 1002.04596 
36540832657969 36540790532000 1002.1499 
36540848049719 36540830556000 1002.03424 
36540901799136 36540870564000 1002.05707 
36540940986636 36540910512000 1001.9502 
36540982823219 36540950505000 1002.0676 
36541023772094 36540990538000 1002.0783 
36541069333469 36541030544000 1002.00653 
36541130340886 36541070496000 1002.16077 
36541149989552 36541110522000 1002.0391 
36541197344636 36541150495000 1002.0418 
36541239985469 36541190497000 1002.0641 
36541258580344 36541230539000 1002.1727 
36541318391843 36541270529000 1002.1536 
36541359962802 36541310499000 1002.0858 
36541377139052 36541350521000 1002.0879 
36541418155718 36541390584000 1002.0576 
36541460707760 36541430501000 1002.1394 
36541514631885 36541470517000 1002.06335 
36541575493553 36541510527000 1002.02747 
36541592472970 36541550528000 1002.0272 
36541654097178 36541590495000 1002.03503 
36541674791094 36541630514000 1002.0853 
36541723697095 36541670500000 1002.01086 
36541768958886 36541710525000 1001.94055 
36541787794595 36541750515000 1002.0729 
36541837844095 36541790510000 1002.0265 
36541923340220 36541830511000 1002.1019 
36541943553136 36541870501000 1002.0396 
36541965399678 36541910565000 1001.9579 
36542013263220 36541950542000 1002.0346 
36542029279636 36541990564000 1002.05664 
36542076280553 36542030507000 1002.0474 
36542114823053 36542070496000 1002.0588 
36542185729928 36542110509000 1001.9925 
36542202883720 36542150506000 1002.0033 
36542244758095 36542190493000 1002.09076 
36542257474845 36542230537000 1001.9238 
36542312730595 36542270495000 1001.9784 
36542354564678 36542310503000 1002.0851 
36542395843845 36542350517000 1001.9999 
36542413092970 36542390572000 1002.01733 
36542454041553 36542430490000 1002.0641 
36542497284137 36542470497000 1002.0403 
36542557985678 36542510514000 1001.8616 
36542600605595 36542550517000 1002.0591 
36542617438887 36542590518000 1001.95074 
36542657471761 36542630525000 1001.95294 
36542700692511 36542670510000 1002.03503 
36542746633886 36542710970000 1001.97485 
36542800513345 36542750501000 1001.9306 
36542831072011 36542790524000 1001.92303 
36542909469303 36542830515000 1001.91327 
36542934597094 36542870517000 1001.96387 
36542994301470 36542910520000 1001.88574 
36543011634970 36542950520000 1001.9257 
36543071338137 36542990549000 1001.98267 
36543088284095 36543030514000 1001.9682 
36543130496679 36543070501000 1001.94275 
36543147579262 36543110492000 1001.9723 
36543190534804 36543150539000 1001.9286 
36543236278553 36543190492000 1002.002 
36543252798678 36543230903000 1002.013 
36543348430678 36543270493000 1001.9443 
36543367786178 36543310519000 1002.0051 
36543417649219 36543350504000 1002.0824 
36543434282469 36543390507000 1001.9924 
36543475369011 36543430501000 1002.1111 
36543531064803 36543470490000 1002.0239 
36543547507469 36543510491000 1002.0961 
36543596640845 36543550493000 1002.0415 
36543639741053 36543590558000 1002.0493 
36543656005428 36543630518000 1001.99207 
36543698228262 36543670973000 1001.9295 
36543743244471 36543710500000 1002.0746 
36543786075596 36543750493000 1001.9495 
36543919004762 36543790483000 1001.985 
36543936661638 36543830528000 1001.9125 
36543953811887 36543870581000 1002.0427 
36543964693345 36543910511000 1001.9174 
36544009359887 36543950598000 1002.0289 
36544024904970 36543990531000 1002.14514 
36544070725179 36544030508000 1002.0531 
36544116311387 36544070498000 1001.98065 
36544183103095 36544110550000 1002.1213 
36544199502970 36544150667000 1002.01984 
36544240680095 36544190494000 1002.0355 
36544256603095 36544230567000 1002.09845 
36544298301428 36544270576000 1002.0563 
36544352600470 36544310499000 1002.04877 
36544392818553 36544350510000 1002.0813 
36544432957928 36544390515000 1002.0649 
36544450034679 36544430517000 1001.99274 
36544491348596 36544470523000 1002.11694 
36544544897304 36544510522000 1002.1375 
36544587312138 36544550501000 1002.0932 
36544631401388 36544590497000 1002.045 
36544673318637 36544630511000 1002.0458 
36544713652471 36544670536000 1002.0945 
36544730639679 36544710597000 1002.0667 
36544771934304 36544750576000 1002.14777 
36544814079762 36544791061000 1002.1772 
36544868851846 36544830527000 1002.0135 
36544915163346 36544870507000 1002.05884 
36544958749846 36544910569000 1002.1052 
36544973660971 36544950499000 1002.127 
36545021925221 36544990519000 1002.06757 
36545099441054 36545030478000 1002.0355 
36545121755138 36545070533000 1002.03314 
36545166334971 36545110524000 1002.0952 
36545182785471 36545150561000 1002.02747 
36545224972596 36545190498000 1002.04016 
36545271799054 36545230498000 1002.1569 
36545320062138 36545270490000 1001.9992 
36545338998179 36545310529000 1002.11163 
36545395348638 36545350519000 1002.01807 
36545436628013 36545390491000 1002.0523 
36545451557721 36545430517000 1002.16364 
36545493654595 36545470519000 1002.0749 
36545553215470 36545510523000 1002.1226 
36545591655304 36545550522000 1002.0623 
36545634671347 36545590553000 1002.1036 
36545652261097 36545630542000 1002.0445 
36545712351180 36545670509000 1002.0952 
36545756767930 36545710495000 1002.06995 
36545800608389 36545750538000 1001.9791 
36545817077555 36545790586000 1002.06555 
36545859543555 36545830497000 1002.0502 
36545907142138 36545870500000 1002.0115 
36545978018138 36545910486000 1002.04913 
36546000862222 36545950556000 1002.0862 
36546043529805 36545990541000 1002.0538 
36546059236763 36546030562000 1002.0325 
36546102609388 36546070503000 1002.02716 
36546149662680 36546110513000 1002.1319 
36546217272222 36546150494000 1002.0605 
36546240478389 36546190515000 1002.06445 
36546287951763 36546230514000 1002.05054 
36546304429513 36546270504000 1001.99274 
36546348030972 36546310516000 1002.0716 
36546390547222 36546350495000 1002.1306 
36546448012097 36546390495000 1002.04095 
36546467549014 36546430613000 1002.0567 
36546537122347 36546470526000 1002.07086 
36546553873138 36546514127000 1002.0451 
36546597134139 36546550493000 1002.0459 
36546642589722 36546590496000 1002.08997 
36546657369639 36546630514000 1002.0198 
36546702666264 36546670509000 1002.04297 
36546745174388 36546710492000 1001.97406 
36546806794221 36546750492000 1002.02606 
36546828414804 36546790509000 1002.0064 
36546883400888 36546830500000 1002.0268 
36546925683721 36546870703000 1002.0515 
36546946117555 36546910783000 1002.06323 
36547005837638 36546950550000 1001.99774 
36547077071263 36546990542000 1001.97797 
36547092337971 36547030693000 1002.07776 
36547107733138 36547071767000 1001.94025 
36547154211013 36547110513000 1002.07965 
36547198066555 36547150510000 1001.9944 
36547241547846 36547190520000 1002.07294 
36547266977471 36547230585000 1001.9458 
36547322845138 36547270531000 1002.1348 
36547390430723 36547310545000 1002.0134 
36547437192806 36547350566000 1001.993 
36547503885222 36547390541000 1002.02454 
36547525718390 36547430524000 1002.13513 
36547546091348 36547470516000 1002.0312 
36547587902389 36547510496000 1002.07367 
36547603435056 36547550499000 1002.0344 
36547647394348 36547590500000 1002.13635 
36547663332847 36547630541000 1002.06696 
36547707004181 36547670508000 1002.0911 
36547766424680 36547710508000 1002.0574 
36547781741389 36547750869000 1002.03845 
36547831109347 36547790505000 1002.0941 
36547875885055 36547830492000 1002.01373 
36547919645805 36547870510000 1002.0956 
36547936431555 36547910550000 1002.05145 
36547994353972 36547950501000 1002.11835 
36548036630222 36547990491000 1002.17633 
36548053800305 36548030509000 1002.1467 
36548097186055 36548070492000 1002.0069 
36548139679097 36548110496000 1002.2112 
36548184668390 36548150502000 1002.1554 
36548251237389 36548190493000 1002.15125 
36548269215847 36548230599000 1002.09607 
36548317572014 36548270530000 1002.06366 
36548360896263 36548310502000 1002.08386 
36548375922388 36548350508000 1002.1325 
36548418772347 36548390513000 1002.02576 
36548463845763 36548430503000 1002.0256 
36548519448430 36548470501000 1002.1235 
36548567624722 36548510679000 1002.08167 
36548583649555 36548550512000 1002.1332 
36548657244013 36548590522000 1002.1975 
36548672435722 36548630512000 1002.2101 
36548717093973 36548670495000 1002.10986 
36548758770931 36548710501000 1002.0583 
36548775211182 36548750565000 1002.11176 
36548820836056 36548790531000 1002.1628 
36548883944389 36548830506000 1002.09985 
36548899927306 36548870539000 1002.08655 
36548943790973 36548911298000 1002.10876 
36548987000389 36548950519000 1002.13275 
36549030511806 36548990490000 1002.045 
36549087755222 36549030498000 1002.05707 
36549104182014 36549070522000 1002.10944 
36549145665723 36549110524000 1002.09644 
36549187456389 36549150519000 1002.1898 
36549228983931 36549190613000 1002.1442 
36549283156472 36549230502000 1002.1117 
36549299338889 36549270506000 1002.1331 
36549342781764 36549310490000 1002.1477 
36549384283347 36549350505000 1002.1008 
36549424883597 36549390505000 1002.0233 
36549480143889 36549431301000 1002.1568 
36549495799389 36549470518000 1002.0166 
36549539127639 36549510540000 1002.06494 
36549580646431 36549550486000 1001.98785 
36549622310056 36549590524000 1001.9388 
36549677667389 36549630837000 1001.9954 
36549721114889 36549670558000 1002.0415 
36549738268639 36549710499000 1001.9409 
36549780141264 36549750506000 1002.1301 
36549821432431 36549790496000 1001.9694 
36549878036723 36549830501000 1002.03723 
36549919548389 36549870521000 1002.0202 
36549936980889 36549910972000 1001.9775 
36549979890306 36549950495000 1001.95636 
36550037998681 36549990492000 1001.9342 
36550081076765 36550030494000 1002.10284 
36550098013556 36550070511000 1002.0524 
36550152676473 36550110490000 1002.0701 
36550223393681 36550150561000 1002.15295 
36550251109515 36550190572000 1002.1659 
36550345431307 36550230559000 1001.98663 
36550371585099 36550270560000 1002.1806 
36550398762224 36550310873000 1002.20355 
36550479992973 36550351381000 1002.0346 
36550512499390 36550390545000 1002.2339 
36550548409432 36550430556000 1002.1953 
36550614993973 36550470579000 1002.0671 
36550642965432 36550510569000 1002.139 
36550667269057 36550550594000 1002.0627 
36550697087016 36550590539000 1002.1313 
36550771266099 36550630547000 1002.1138 
36550819897724 36550670518000 1002.017 
36550840548016 36550710523000 1002.0626 
36550893638349 36550750578000 1002.1067 
36550912171891 36550790535000 1002.06213 
36550927427724 36550830487000 1002.1183 
36550947290391 36550870704000 1002.0805 
36550993755765 36550910517000 1002.11395 
36551010844849 36550950623000 1002.0645 
36551093999890 36550990582000 1002.077 
36551117331016 36551030534000 1002.1204 
36551137572099 36551070536000 1002.0343 
36551186043516 36551110619000 1001.9848 
36551201780224 36551150513000 1002.12573 
36551245179099 36551190495000 1002.0783 
36551261013724 36551230496000 1002.01416 
36551302900432 36551270503000 1002.1015 
36551344281099 36551310505000 1002.1972 
36551388507057 36551350499000 1002.0837 
36551448468682 36551390509000 1002.0415 
36551464742099 36551430514000 1002.1282 
36551514392724 36551470485000 1002.01697 
36551573548682 36551510498000 1002.1423 
36551589142932 36551550515000 1002.05115 
36551635245933 36551590484000 1002.0996 
36551678349016 36551630509000 1002.06744 
36551737622348 36551670508000 1002.0828 
36551801763182 36551710526000 1002.05316 
36551840193474 36551750570000 1002.0069 
36551889656807 36551791196000 1002.0456 
36551901922182 36551830541000 1002.0978 
36551918041307 36551870521000 1002.04553 
36551968786473 36551910496000 1001.9923 
36551988076973 36551950504000 1002.07495 
36552050479057 36551990516000 1002.1525 
36552145777475 36552030495000 1002.04736 
36552166458558 36552070523000 1002.01074 
36552193006641 36552110543000 1002.0613 
36552292105849 36552150536000 1002.10895 
36552334226640 36552190532000 1002.0391 
36552364433349 36552230625000 1002.0914 
36552384507932 36552270724000 1002.18384 
36552439183724 36552310630000 1002.09 
36552457001682 36552350642000 1002.1117 
36552475031641 36552390571000 1002.1172 
36552524237140 36552430529000 1002.1462 
36552542578766 36552470524000 1002.10675 
36552561644641 36552510621000 1002.1798 
36552655480057 36552550569000 1002.10016 
36552677678057 36552590576000 1002.0708 
36552697012099 36552630581000 1002.06757 
36552742251557 36552670512000 1002.0055 
36552757610890 36552710536000 1002.00824 
36552800793225 36552750487000 1002.09155 
36552816614017 36552790512000 1002.0618 
36552873848725 36552830529000 1002.0695 
36552918931349 36552870500000 1002.0443 
36552939718849 36552910668000 1002.172 
36552992407974 36552950530000 1002.1469 
36553040100433 36552990520000 1002.0779 
36553055986308 36553030679000 1002.0778 
36553112410558 36553070498000 1002.0554 
36553157322683 36553110485000 1001.96875 
36553202643641 36553150503000 1002.0665 
36553222773474 36553190526000 1001.9373 
36553265848433 36553230494000 1002.01276 
36553307471266 36553270508000 1002.02966 
36553352763891 36553310503000 1002.1948 
36553399092767 36553350498000 1002.122 
36553435934058 36553390510000 1002.0817 
36553480254808 36553430505000 1002.06256 
36553523085100 36553470489000 1002.15076 
36553540198392 36553510482000 1002.14465 
36553583293391 36553550542000 1001.969 
36553626274350 36553590496000 1002.0997 
36553684928224 36553630513000 1002.0384 
36553739644641 36553670505000 1002.15686 
36553754189099 36553710521000 1002.1027 
36553797277183 36553750499000 1002.1099 
36553840907391 36553790531000 1002.0192 
36553858595100 36553830500000 1002.17163 
36553902557016 36553870499000 1002.1886 
36553947695558 36553910489000 1002.1036 
36554001570641 36553950492000 1002.1271 
36554059334683 36553990486000 1002.1803 
36554076313141 36554030521000 1002.1752 
36554120462393 36554070502000 1002.06085 
36554136437476 36554110568000 1002.13806 
36554180220476 36554150511000 1002.1304 
36554223169142 36554190515000 1002.107 
36554290583893 36554230508000 1002.1466 
36554307058392 36554270510000 1002.0898 
36554353111517 36554310493000 1002.0977 
36554398623641 36554350489000 1002.1213 
36554415619475 36554390493000 1002.1507 
36554473854058 36554430497000 1002.0913 
36554519081016 36554470486000 1002.1772 
36554542406058 36554510508000 1002.0588 
36554585246184 36554550492000 1002.0301 
36554631159767 36554590488000 1001.9974 
36554676051684 36554630509000 1002.0209 
36554720276934 36554670517000 1002.0149 
36554739222266 36554710539000 1002.068 
36554781802183 36554750492000 1002.1689 
36554853220142 36554790484000 1002.0344 
36554871810225 36554830714000 1002.10376 
36554934979516 36554870498000 1002.1675 
