#SysTm EventTmStmp Pressure
42080174690483 42079705934000 996.2854 
42080198905233 42079777650000 996.26154 
42080209227649 42079845578000 996.1666 
42080217279275 42079915613000 996.2699 
42080225364358 42079985635000 996.243 
42080233512941 42080055599000 996.3646 
42080242969150 42080125840000 996.3614 
42080260320108 42080195679000 996.2665 
42080369964524 42080265585000 996.2601 
42080381322483 42080335614000 996.2526 
42080406198941 42080405828000 996.2382 
42080477416483 42080475574000 996.19257 
42080545944900 42080545672000 996.26434 
42080615997608 42080615608000 996.14624 
42080686301525 42080685661000 996.2854 
42080755968317 42080755596000 996.2011 
42080834096358 42080825721000 996.23895 
42080898001650 42080895643000 996.1897 
42080970859150 42080966487000 996.2925 
42081035908816 42081035612000 996.23773 
42081106080525 42081105676000 996.24945 
42081176346316 42081176019000 996.2334 
42081247010942 42081245592000 996.2547 
42081315807609 42081315570000 996.23846 
42081385852401 42081385576000 996.2874 
42081456174442 42081455696000 996.2302 
42081525870942 42081525588000 996.25867 
42081595879401 42081595587000 996.2298 
42081666257401 42081665712000 996.22943 
42081741671317 42081735565000 996.28156 
42081806013317 42081805628000 996.1622 
42081878727066 42081878057000 996.24817 
42081945905900 42081945640000 996.17664 
42082015896442 42082015615000 996.2596 
42082085977483 42082085629000 996.17914 
42082156045525 42082155705000 996.2092 
42082228799108 42082225687000 996.24054 
42082297071733 42082296498000 996.1566 
42082365911858 42082365614000 996.24445 
42082435923733 42082435638000 996.2213 
42082505990275 42082505599000 996.1245 
42082576005983 42082575628000 996.1634 
42082646285776 42082645670000 996.2289 
42082715813651 42082715575000 996.32526 
42082785818610 42082785568000 996.2644 
42082856010193 42082855637000 996.2248 
42082925798401 42082925566000 996.202 
42082995816026 42082995567000 996.1966 
42083066089318 42083065648000 996.17206 
42083135846526 42083135570000 996.2037 
42083206044901 42083205675000 996.11536 
42083304876151 42083276172000 996.24115 
42083345952442 42083345634000 996.126 
42083415862693 42083415582000 996.2642 
42083487860234 42083485742000 996.1914 
42083556014276 42083555622000 996.21075 
42083633137567 42083626823000 996.22455 
42083700662526 42083697990000 996.22614 
42083768449484 42083766059000 996.24615 
42083836330818 42083835904000 996.189 
42083907966901 42083905668000 996.25385 
42083976926276 42083975892000 996.17316 
42084046144902 42084045625000 996.27734 
42084115867402 42084115572000 996.1963 
42084187919776 42084185641000 996.2178 
42084256968943 42084255629000 996.21356 
42084326051609 42084325639000 996.2108 
42084395867401 42084395567000 996.16675 
42084465901776 42084465594000 996.178 
42084536048318 42084535630000 996.2594 
42084606160109 42084605774000 996.1517 
42084675957568 42084675672000 996.16876 
42084746006486 42084745672000 996.21234 
42084815834277 42084815581000 996.2153 
42084885853652 42084885580000 996.19946 
42084956293860 42084955745000 996.03033 
42085028168652 42085025576000 996.21326 
42085096010152 42085095591000 996.262 
42085179821652 42085166107000 996.1788 
42085235796610 42085235552000 996.08966 
42085305802819 42085305552000 996.14215 
42085376289069 42085375772000 996.14935 
42085446377902 42085446095000 996.2774 
42085516018111 42085515779000 996.27155 
42085585809069 42085585555000 996.33203 
42085656934486 42085655754000 996.2922 
42085725879153 42085725580000 996.25146 
42085796292861 42085795906000 996.2799 
42085865898944 42085865580000 996.28687 
42085935981027 42085935682000 996.15955 
42086006148152 42086005821000 996.1791 
42086076134819 42086075628000 996.2264 
42086145837402 42086145593000 996.26416 
42086217332945 42086217040000 996.20325 
42086286162612 42086285814000 996.2715 
42086355880237 42086355625000 996.23175 
42086428929486 42086425614000 996.2143 
42086495955986 42086495614000 996.23224 
42086565830778 42086565574000 996.2314 
42086635996695 42086635656000 996.19653 
42086705962487 42086705614000 996.17975 
42086777010612 42086775637000 996.22003 
42086846060403 42086845655000 996.1403 
42086916828944 42086915758000 996.2095 
42086985854403 42086985556000 996.2016 
42087056006944 42087055593000 996.23553 
42087126164027 42087125674000 996.1974 
42087196597570 42087195730000 996.141 
42087266424862 42087266131000 996.12396 
42087336693612 42087336334000 996.1868 
42087406576153 42087406086000 996.1653 
42087475844028 42087475588000 996.2332 
42087546481195 42087545767000 996.0468 
42087616185695 42087615766000 996.0728 
42087685895195 42087685612000 996.1367 
42087756030320 42087755661000 996.2356 
42087834870111 42087825725000 996.2286 
42087898566320 42087895660000 996.1471 
42087966094362 42087965733000 996.1866 
42088036096070 42088035707000 996.16614 
42088106196654 42088105689000 996.2225 
42088175846529 42088175576000 996.2671 
42088245984779 42088245616000 996.10046 
42088316042154 42088315657000 996.0903 
42088387385612 42088385667000 996.1334 
42088456629571 42088456308000 996.1965 
42088526808987 42088526395000 996.2553 
42088596378113 42088595893000 996.14087 
42088665817696 42088665579000 996.1289 
42088737487404 42088735629000 996.16125 
42088806699196 42088806136000 996.16406 
42088875857154 42088875567000 996.12854 
42088945826363 42088945587000 996.2446 
42089015811238 42089015595000 996.2196 
42089086020738 42089085700000 996.2492 
42089156352863 42089155769000 996.13403 
42089229143154 42089225588000 996.1542 
42089301827196 42089295730000 996.09076 
42089365849988 42089365583000 996.1867 
42089435960071 42089435625000 996.2203 
42089506379196 42089505784000 996.22876 
42089576015404 42089575621000 996.2191 
42089646024488 42089645624000 996.1138 
42089716309279 42089715733000 996.1859 
42089787523320 42089785673000 996.21985 
42089856577071 42089855788000 996.1474 
42089926006196 42089925605000 996.21564 
42089996078613 42089995616000 996.1267 
42090067680113 42090066187000 996.20764 
42090135971446 42090135669000 996.16437 
42090206119946 42090205678000 996.17377 
42090275862738 42090275576000 996.2109 
42090345920696 42090345645000 996.134 
42090415934322 42090415662000 996.27264 
42090485909029 42090485627000 996.14343 
42090556324904 42090555775000 996.16156 
42090629555029 42090625628000 996.1515 
42090698898404 42090695702000 996.0378 
42090765901112 42090765640000 996.20306 
42090836013071 42090835627000 996.1519 
42090906164904 42090905668000 996.1512 
42090976022822 42090975655000 996.20386 
42091045983239 42091045600000 996.1502 
42091116121364 42091115658000 996.0734 
42091186029280 42091185614000 996.1344 
42091255921447 42091255622000 996.1312 
42091326538114 42091326125000 996.0925 
42091396133363 42091395625000 996.15436 
42091465963655 42091465612000 996.2165 
42091538504863 42091535673000 996.2241 
42091605987155 42091605629000 996.1349 
42091675849238 42091675602000 996.153 
42091745872571 42091745613000 996.25745 
42091816250363 42091815832000 996.1315 
42091885772030 42091885560000 996.2216 
42091956063488 42091955763000 996.30115 
42092032465946 42092025677000 996.2356 
42092096933238 42092095662000 996.28235 
42092165878072 42092165639000 996.2297 
42092235899822 42092235559000 996.2797 
42092305885030 42092305580000 996.2127 
42092377623822 42092375619000 996.204 
42092445822947 42092445554000 996.11145 
42092516256072 42092515860000 996.2419 
42092586037572 42092585667000 996.17676 
42092656227197 42092655896000 996.23773 
42092725809739 42092725557000 996.1307 
42092795829739 42092795611000 996.1339 
42092865998280 42092865665000 996.2239 
42092935791989 42092935565000 996.18365 
42093005786906 42093005559000 996.15283 
42093076981697 42093075616000 996.14105 
42093146918030 42093146682000 996.1589 
42093216940280 42093216609000 996.0691 
42093289476822 42093287013000 996.1718 
42093357283405 42093356732000 996.21533 
42093429647823 42093425657000 996.0622 
42093496269573 42093495857000 996.189 
42093570964031 42093565573000 996.2241 
42093641943990 42093635644000 996.2191 
42093990454490 42093705700000 996.198 
42094010445865 42093775563000 996.0773 
42094018200240 42093845580000 996.2093 
42094026476240 42093915715000 996.15204 
42094054478573 42093985573000 996.12366 
42094083695781 42094055577000 996.13293 
42094164481614 42094125558000 996.0929 
42094224257073 42094195577000 996.1608 
42094277245240 42094265597000 996.1166 
42094335873198 42094335568000 996.16473 
42094469093198 42094405560000 996.1409 
42094503895573 42094475624000 996.2321 
42094554209448 42094545571000 996.1264 
42094629084156 42094615598000 996.0072 
42094701019407 42094686078000 996.1024 
42094767136782 42094755603000 996.138 
42094848753698 42094825686000 996.1894 
42094929590698 42094895603000 996.1941 
42095007132865 42094966556000 996.1532 
42095082083865 42095035574000 996.1254 
42095126616698 42095105669000 996.0976 
42095219636740 42095176084000 996.14435 
42095253991115 42095245683000 996.0275 
42095315987740 42095315613000 996.04785 
42095387340782 42095387092000 996.1448 
42095455805657 42095455550000 996.0844 
42095525776782 42095525540000 996.1505 
42095596014448 42095595741000 996.0929 
42095665862657 42095665642000 996.0608 
42095736015698 42095735730000 996.0847 
42095805789449 42095805563000 996.1682 
42095875875491 42095875574000 996.13525 
42095946072324 42095945599000 995.9944 
42096015761533 42096015561000 996.1825 
42096085961741 42096085712000 996.1366 
42096155874866 42096155586000 996.10175 
42096236212699 42096225610000 996.1088 
42096295784199 42096295563000 996.09125 
42096371057908 42096365568000 996.11957 
42096435919991 42096435609000 996.1098 
42096507915449 42096505653000 996.10724 
42096575779699 42096575549000 996.00555 
42096657658657 42096645591000 996.0643 
42096715870574 42096715584000 996.0091 
42096785810449 42096785553000 996.002 
42096855953449 42096855639000 996.05035 
42096928939616 42096925574000 996.21515 
42096995896116 42096995587000 996.12054 
42097065787158 42097065540000 996.0983 
42097136023033 42097135629000 996.059 
42097207205825 42097205572000 996.0933 
42097277039075 42097275597000 996.10126 
42097345808950 42097345569000 996.1203 
42097415852408 42097415584000 996.0684 
42097485752825 42097485550000 996.14935 
42097555867492 42097555603000 996.0616 
42097630712783 42097625617000 996.11053 
42097705638783 42097695622000 996.1043 
42097765833658 42097765575000 996.0485 
42097835978616 42097835591000 996.0142 
42097906571076 42097905589000 996.0833 
42097976344534 42097976059000 996.04474 
42098046678367 42098046285000 996.1015 
42098116861784 42098116361000 996.20233 
42098186013659 42098185689000 996.18243 
42098255897534 42098255619000 996.09735 
42098325949826 42098325645000 996.1137 
42098395858451 42098395561000 996.21454 
42098466067618 42098465798000 996.1772 
42098536186117 42098535800000 996.13226 
42098606597826 42098606343000 996.06854 
42098677329826 42098675776000 996.1435 
42098745921784 42098745567000 996.175 
42098837159909 42098815610000 996.08325 
42098886316325 42098885650000 996.1674 
42098957297700 42098957008000 996.25397 
42099030815784 42099025557000 996.0882 
42099099625283 42099095635000 996.2025 
42099166509659 42099165568000 996.16785 
42099237166367 42099235987000 996.09216 
42099306065284 42099305615000 996.0447 
42099376514534 42099376230000 996.07056 
42099446017618 42099445726000 996.14813 
42099515884618 42099515617000 996.2041 
42099585828368 42099585554000 996.12524 
42099655850993 42099655583000 996.06165 
42099726341368 42099725972000 996.076 
42099795856701 42099795582000 996.1046 
42099891162201 42099865579000 996.165 
42099935912868 42099935593000 996.0084 
42100005914368 42100005588000 996.0479 
42100075875701 42100075608000 996.1595 
42100147139784 42100145581000 996.1232 
42100216771534 42100215638000 996.1286 
42100285908451 42100285583000 996.1154 
42100355960451 42100355697000 996.07904 
42100428740284 42100425691000 996.0184 
42100495824701 42100495585000 996.0856 
42100566033534 42100565678000 995.9818 
42100635970325 42100635639000 995.91656 
42100706015951 42100705691000 996.0276 
42100775951617 42100775615000 996.0105 
42100846019409 42100845620000 996.0289 
42100916294826 42100915761000 996.0869 
42100986035702 42100985616000 996.0831 
42101055863577 42101055565000 995.97485 
42101125829285 42101125558000 996.1284 
42101212851285 42101196394000 996.12354 
42101265870494 42101265564000 996.15436 
42101335834327 42101335564000 996.0477 
42101405824744 42101405556000 996.09375 
42101476886951 42101476333000 995.9996 
42101546340993 42101546094000 996.08594 
42101616490701 42101615567000 996.18195 
42101685807076 42101685574000 995.9222 
42101755900118 42101755566000 995.8699 
42101849015701 42101825575000 995.87555 
42101895792951 42101895560000 995.88654 
42101965778035 42101965552000 995.8946 
42102036162785 42102035623000 995.8133 
42102105797743 42102105570000 995.82715 
42102175989993 42102175611000 995.8242 
42102245790535 42102245570000 995.876 
42102330503619 42102318744000 995.8365 
42102385834327 42102385604000 995.84045 
42102455934827 42102455683000 995.77625 
42102525812328 42102525573000 995.8934 
42102599213785 42102596098000 995.8962 
42102665803452 42102665578000 995.8383 
42102749988410 42102735589000 995.92975 
42102806944452 42102806167000 995.93744 
42102876877827 42102876604000 996.05396 
42102946521327 42102946272000 996.0995 
42103016757578 42103016406000 996.0967 
42103086188827 42103085870000 996.122 
42103155997452 42103155653000 996.0974 
42103230985077 42103225628000 996.0995 
42103298366119 42103295566000 996.1497 
42103368851994 42103367387000 996.0773 
42103435830994 42103435561000 996.1426 
42103505870744 42103505578000 996.14307 
42103575763077 42103575553000 996.19385 
42103645829203 42103645572000 996.04675 
42103716064120 42103715647000 996.10254 
42103785850328 42103785580000 996.1332 
42103855938411 42103855631000 996.09973 
42103925828245 42103925567000 996.0916 
42103995822870 42103995575000 996.11005 
42104066185411 42104065644000 996.0944 
42104136323286 42104135589000 996.14716 
42104206388577 42104205579000 996.0984 
42104276020661 42104275728000 996.0385 
42104346169619 42104345807000 996.0589 
42104416119536 42104415836000 996.0594 
42104485788203 42104485566000 996.01465 
42104569877744 42104555646000 996.1266 
42104632482744 42104625563000 996.1237 
42104695788744 42104695557000 996.1589 
42104765833661 42104765579000 996.1367 
42104835961328 42104835614000 996.1393 
42104906144203 42104905642000 996.0446 
42105042858703 42104976047000 996.1486 
42105083206661 42105045596000 996.1266 
42105123560869 42105116250000 996.0527 
42105193357536 42105185618000 996.0609 
42105270091411 42105255574000 996.1858 
42105334979371 42105325560000 996.15845 
42105401772037 42105395547000 996.1125 
42105466182453 42105465619000 995.97705 
42105535921996 42105535605000 996.1221 
42105606438121 42105605598000 996.11816 
42105675978579 42105675673000 996.104 
42105745912246 42105745586000 996.1007 
42105843183495 42105815624000 996.16156 
42105905931079 42105885618000 996.2125 
42105985815704 42105955626000 996.1824 
42106058697662 42106025554000 996.07635 
42106097995412 42106095576000 996.0916 
42106165771329 42106165546000 995.97626 
42106235846079 42106235560000 999.0245 
42106305827079 42106305555000 996.03046 
42106375979246 42106375580000 996.0702 
42106445899079 42106445588000 996.1687 
42106516168329 42106515748000 996.15015 
42106615834204 42106585643000 996.0392 
42106655858954 42106655564000 996.0086 
42106725912996 42106725580000 996.1025 
42106795861663 42106795576000 996.0026 
42106866032746 42106865609000 996.0368 
42106935948746 42106935583000 995.95526 
42107006011454 42107005632000 995.9716 
42107076766121 42107076310000 996.1162 
42107146573788 42107145844000 996.04205 
42107216171913 42107215749000 996.02875 
42107286663788 42107286121000 996.04346 
42107362781079 42107355603000 996.1072 
42107430110871 42107425576000 996.1043 
42107496269454 42107495554000 996.13477 
42107566736788 42107566407000 996.12213 
42107636529371 42107636070000 996.0949 
42107706031829 42107705722000 996.06384 
42107776138913 42107775624000 996.0322 
42107846065288 42107845685000 996.0394 
42107916085454 42107915751000 996.061 
42107985968996 42107985612000 996.0737 
42108056040996 42108055666000 996.0838 
42108126141371 42108125824000 996.0259 
42108196176538 42108195723000 996.094 
42108266453246 42108265898000 996.08954 
42108336240913 42108335614000 996.076 
42108405941038 42108405600000 996.1192 
42108476804705 42108475621000 996.1003 
42108545926413 42108545595000 995.98145 
42108616200247 42108615932000 995.9993 
42108685885872 42108685593000 996.0241 
42108756005872 42108755607000 996.0344 
42108831621372 42108825612000 996.12994 
42108897711038 42108895663000 996.10425 
42108971010622 42108966302000 996.0361 
42109039519746 42109035809000 996.0735 
42109118906954 42109105689000 996.0655 
42109176244830 42109175967000 996.1837 
42109245900871 42109245590000 996.01306 
42109315941871 42109315618000 996.08545 
42109385964705 42109385603000 996.0351 
42109455925913 42109455594000 996.0386 
42109525962621 42109525608000 996.05725 
42109602415330 42109595616000 996.1516 
42109665938413 42109665588000 996.0882 
42109736147330 42109735642000 996.0972 
42109806233621 42109805661000 996.0813 
42109876647830 42109875703000 996.01373 
42109945776538 42109945561000 995.968 
42110016100871 42110015737000 995.95996 
42110086014496 42110085612000 995.75745 
42110155838455 42110155579000 995.8811 
42110229003581 42110225618000 996.04285 
42110297641498 42110295595000 995.96436 
42110365916456 42110365659000 995.95966 
42110435867456 42110435585000 995.99146 
42110505876039 42110505602000 995.9866 
42110575879831 42110575583000 996.03326 
42110645863790 42110645603000 995.92566 
42110716049831 42110715673000 996.0021 
42110785973623 42110785660000 995.97253 
42110855906331 42110855631000 995.9827 
42110926625039 42110926328000 995.988 
42110996020415 42110995622000 996.098 
42111065888331 42111065581000 996.0791 
42111135969665 42111135627000 996.11017 
42111205911998 42111205600000 996.08246 
42111276848998 42111275650000 996.14185 
42111345816331 42111345584000 996.1583 
42111415867206 42111415621000 996.0437 
42111485858706 42111485589000 996.078 
42111556063581 42111555676000 996.0835 
42111628605748 42111625602000 996.0489 
42111697692581 42111695607000 996.0456 
42111765872040 42111765591000 996.02997 
42111835966165 42111835643000 996.1523 
42111906049748 42111905648000 996.04926 
42111975886456 42111975668000 996.0143 
42112046006831 42112045638000 995.99634 
42112116859873 42112116283000 996.07886 
42112185909915 42112185586000 995.9655 
42112256691790 42112255601000 995.9901 
42112326559831 42112326267000 995.944 
42112397616706 42112396316000 995.9487 
42112466335998 42112466051000 996.0345 
42112535875290 42112535581000 995.97186 
42112613300873 42112607948000 995.9104 
42112676059665 42112675587000 995.98047 
42112747116831 42112745966000 995.95917 
42112816314582 42112815705000 995.9177 
42112886137582 42112885687000 995.9877 
42112955948373 42112955601000 996.11115 
42113032362957 42113025850000 995.959 
42113098706748 42113095652000 995.9694 
42113166268998 42113165916000 995.95886 
42113236438373 42113236128000 995.9898 
42113305818540 42113305571000 995.9559 
42113376410498 42113375580000 995.86926 
42113448843540 42113445730000 996.04364 
42113515933040 42113515630000 995.9646 
42113586485290 42113586177000 995.96796 
42113655965498 42113655627000 995.96356 
42113726649165 42113725584000 995.92786 
42113795865540 42113795586000 995.953 
42113866228832 42113865716000 995.91943 
42113936052915 42113935763000 995.95764 
42114006124873 42114005811000 995.93475 
42114075906082 42114075604000 995.901 
42114145898998 42114145589000 996.00336 
42114216510040 42114215660000 996.0721 
42114285823790 42114285585000 995.99426 
