#SysTm EventTmStmp Pressure
313155162074200 1379577662738155525 989.9859 
313155271001410 1379577663055416267 990.1958 
313155281591979 1379577663119320075 989.876 
313155342876887 1379577663182491462 989.3862 
313155406725506 1379577663246517341 989.786 
313155468193535 1379577663309658210 989.84595 
313155532652562 1379577663373623054 989.9259 
313155596501180 1379577663436763923 989.876 
313155666972720 1379577663500728767 989.876 
313155722245115 1379577663563930671 989.95593 
313155786063214 1379577663627834480 989.876 
313155876037270 1379577663691158454 989.816 
313155936315007 1379577663755152494 989.95593 
313155999217493 1379577663818232328 989.816 
313156063157674 1379577663882258207 989.9259 
313156125693917 1379577663945399076 989.816 
313156167628908 1379577664009516507 989.786 
313156231477529 1379577664072626859 989.84595 
313156295600830 1379577664136591703 989.84595 
313156358320195 1379577664199915677 989.95593 
313156421985691 1379577664263727933 989.876 
313156485101821 1379577664326868802 989.84595 
313156557648748 1379577664391077787 989.9259 
313156624030557 1379577664454035550 989.84595 
313156676739239 1379577664518214017 989.9259 
313156743609375 1379577664581216962 989.84595 
313156807580075 1379577664645181806 989.9259 
313156871459216 1379577664708383710 989.84595 
313156937505301 1379577664772348554 989.876 
313157001811725 1379577664835672529 989.816 
313157061723216 1379577664899423749 989.876 
313157128166066 1379577664963174970 989.9259 
313157193815389 1379577665026590497 989.84595 
313157261265411 1379577665089700849 989.816 
313157326212762 1379577665153818281 989.84595 
313157393327061 1379577665216898115 989.816 
313157463432358 1379577665280832441 989.84595 
313157507961580 1379577665344125898 989.876 
313157583835226 1379577665407968671 989.816 
313157629493703 1379577665471262128 989.95593 
313157693617006 1379577665535318525 989.9259 
313157756488972 1379577665598276289 989.9259 
313157828242369 1379577665663065107 989.95593 
313157888550624 1379577665725473554 989.84595 
313157959815692 1379577665789438398 989.9259 
313158013287385 1379577665852731855 989.9259 
313158081408856 1379577665916513593 989.876 
313158144433425 1379577665979837568 989.9259 
313158219605102 1379577666043619306 989.84595 
313158267186363 1379577666106821210 989.876 
313158359815694 1379577666171854169 989.876 
313158400438309 1379577666234134499 989.816 
313158486108993 1379577666298282448 989.9259 
313158535094191 1379577666361240212 989.876 
313158596806384 1379577666425205055 989.9259 
313158663371316 1379577666488559548 989.95593 
313158740923582 1379577666552371804 989.9259 
313158777059704 1379577666615726296 989.9259 
313158843380472 1379577666679538552 989.84595 
313158910708415 1379577666742709938 989.9259 
313158987955476 1379577666806857888 989.95593 
313159059281587 1379577666869846169 989.95593 
313159101674384 1379577666933902565 989.876 
313159164454789 1379577666997148544 989.95593 
313159229798906 1379577667060960799 989.9859 
313159282660192 1379577667124345809 989.9259 
313159346447769 1379577667188158065 989.95593 
313159409594421 1379577667251298934 989.9259 
313159473809283 1379577667315507919 989.95593 
313159537078016 1379577667378526717 989.876 
313159601292879 1379577667442644149 989.83594 
313159663859642 1379577667505571395 989.876 
313159727830343 1379577667569566756 989.9859 
313159791526359 1379577667632890731 989.95593 
313159855039254 1379577667696702987 989.95593 
313159920413892 1379577667760026962 989.95593 
313159982187125 1379577667823839217 989.876 
313160052445023 1379577667886980087 989.9259 
313160109579159 1379577667951158553 989.95593 
313160172481648 1379577668014116317 989.95593 
313160236696510 1379577668078325301 989.9259 
313160299721081 1379577668141344100 989.9259 
313160363600219 1379577668205217391 989.83594 
313160427052072 1379577668268571883 989.83594 
313160491999425 1379577668332384139 990.0758 
313160554291505 1379577668395677596 989.876 
313160618048563 1379577668459550887 989.876 
313160681073132 1379577668522661239 989.83594 
313160745318516 1379577668586870223 989.86597 
313160808221004 1379577668649974483 989.876 
313160872344305 1379577668714061397 989.9259 
313160935674079 1379577668777293819 989.80597 
313160999309054 1379577668841075557 989.86597 
313161062730388 1379577668904399532 989.9859 
313161126579006 1379577668968211788 990.04584 
313161189756178 1379577669031352657 989.9859 
313161253910000 1379577669095561641 989.86597 
313161316934570 1379577669158519405 989.9859 
313161381118913 1379577669222697872 989.9259 
313161444082441 1379577669285686153 989.9859 
313161507870018 1379577669349589961 989.9859 
313161571352394 1379577669413049656 989.80597 
313161635109451 1379577669476831394 989.9859 
313161698408703 1379577669540124852 989.83594 
313161761036507 1379577669602685887 989.83594 
313161827021553 1379577669667139012 989.9259 
313161904451737 1379577669731317478 989.86597 
313162019879785 1379577669794275242 989.83594 
313162026105941 1379577669858362156 989.86597 
313162089801958 1379577669921472508 989.9259 
313162145776321 1379577669985315281 989.9859 
313162209014532 1379577670048639256 989.9259 
313162282873833 1379577670112512547 989.80597 
313162346142565 1379577670175622898 989.86597 
313162436543909 1379577670239648777 989.86597 
313162485620667 1379577670302820164 989.83594 
313162548584195 1379577670366998631 989.83594 
313162665110977 1379577670430566746 989.86597 
313162681134172 1379577670494745213 989.83594 
313162721329504 1379577670557214695 989.776 
313162783530022 1379577670620965916 989.86597 
313162846768233 1379577670684289891 989.89594 
313162944952271 1379577670748743016 989.80597 
313162968910763 1379577670810693699 989.83594 
313163035109452 1379577670875452000 989.83594 
313163100087324 1379577670938592869 989.74603 
313163178036355 1379577671002649266 989.86597 
313163246859794 1379577671066424922 989.80597 
313163318857352 1379577671130389766 989.83594 
313163381149433 1379577671193500117 990.01587 
313163462058940 1379577671257739619 989.80597 
313163480218561 1379577671321094111 989.95593 
313163542937927 1379577671384296016 989.83594 
313163605230006 1379577671447131709 989.80597 
313163682385508 1379577671511767940 989.95593 
313163781759840 1379577671574573115 989.9859 
313163796775863 1379577671638202266 989.9859 
313163859769911 1379577671701556758 989.95593 
313163924961427 1379577671765369014 989.89594 
313163996043375 1379577671829348066 989.95593 
313164051346289 1379577671892641523 989.86597 
313164131157062 1379577671955751875 989.9859 
313164199705820 1379577672019686201 989.95593 
313164268620819 1379577672082827070 989.9859 
313164307931060 1379577672147005537 989.89594 
313164375686285 1379577672209963301 989.86597 
313164432210015 1379577672273989180 990.01587 
313164495814472 1379577672337374189 989.9859 
313164559571529 1379577672401155928 989.86597 
313164622779221 1379577672464510420 990.01587 
313164686780441 1379577672528353193 990.01587 
313164749988132 1379577672591463545 989.89594 
313164816797228 1379577672655580977 989.83594 
313164887299287 1379577672718508223 989.86597 
313164980081219 1379577672782778242 989.89594 
313165004253354 1379577672845797041 989.95593 
313165067827289 1379577672909670332 989.89594 
313165131309665 1379577672972963789 989.86597 
313165195005681 1379577673036776045 989.83594 
313165258365973 1379577673100069502 989.86597 
313165322397716 1379577673164095381 989.83594 
313165385330723 1379577673227114180 989.86597 
313165450308596 1379577673291292646 989.89594 
313165512692237 1379577673354280928 989.86597 
313165576876579 1379577673418215254 989.89594 
313165640450517 1379577673481842567 989.89594 
313165703780289 1379577673545593788 989.86597 
313165767262662 1379577673608948280 989.95593 
313165831019720 1379577673672668983 989.86597 
313165919101517 1379577673735809852 989.86597 
313165985666448 1379577673800018837 989.86597 
313166025587095 1379577673862976600 989.95593 
313166087299287 1379577673927460243 989.89594 
313166159693610 1379577673990173866 989.89594 
313166226991033 1379577674054077675 989.89594 
313166306649204 1379577674117493202 989.9859 
313166345532158 1379577674181213905 989.86597 
313166407549554 1379577674244537880 989.80597 
313166472252743 1379577674308425796 989.89594 
313166529692085 1379577674371536147 989.86597 
313166593906949 1379577674435714614 989.89594 
313166656809435 1379577674498702895 989.95593 
313166721695746 1379577674562698257 989.776 
313166787039864 1379577674626785171 989.89594 
313166855283416 1379577674689865005 989.95593 
313166921360022 1379577674753158462 989.95593 
313166983957306 1379577674817001235 989.89594 
313167038680333 1379577674880142104 989.89594 
313167102651035 1379577674944320571 989.86597 
313167172023840 1379577675007278335 989.95593 
313167229646304 1379577675071395766 989.95593 
313167292731913 1379577675134384048 989.89594 
313167356488971 1379577675198318374 989.9859 
313167419910304 1379577675261672866 989.86597 
313167483697883 1379577675325424087 989.89594 
313167547058177 1379577675388809096 989.86597 
313167612432813 1379577675452621352 989.89594 
313167674022926 1379577675515823257 989.9459 
313167738481952 1379577675580001723 989.86597 
313167801353919 1379577675642959487 990.0758 
313167865416181 1379577675707076919 989.9859 
313167928562830 1379577675770156753 989.86597 
313167993754346 1379577675834060561 989.89594 
313168055893824 1379577675897415054 989.9459 
313168119528799 1379577675961409178 989.86597 
313168182858573 1379577676024702635 989.9859 
313168246951354 1379577676088636961 990.01587 
313168309975924 1379577676151747313 989.86597 
313168374221307 1379577676215956297 989.9459 
313168437001714 1379577676278822508 989.86597 
313168502284790 1379577676342878904 989.86597 
313168564454788 1379577676406111326 989.86597 
313168628181325 1379577676469984617 989.86597 
313168692487750 1379577676533308592 989.86597 
313168755451278 1379577676597090330 989.86597 
313168818536888 1379577676660261717 989.80597 
313168882751752 1379577676724440184 989.89594 
313168945623719 1379577676787412542 989.89594 
313169009869102 1379577676851591009 989.89594 
313169073137835 1379577676914548773 989.86597 
313169136986453 1379577676978513617 989.9459 
313169235475694 1379577677042447943 989.80597 
313169284888177 1379577677106260199 989.89594 
313169357313021 1379577677169584173 989.80597 
313169416675145 1379577677233549017 989.9459 
313169484766097 1379577677296567816 989.89594 
313169560304017 1379577677361112494 989.80597 
313169581240993 1379577677423093695 990.01587 
313169647164998 1379577677487668890 990.04584 
313169708480425 1379577677550290960 989.86597 
313169783865746 1379577677614164251 989.9459 
313169864409007 1379577677677549261 989.86597 
313169929203759 1379577677741941351 989.9459 
313169965614563 1379577677804502386 989.89594 
313170035750378 1379577677869413275 989.89594 
313170090259763 1379577677932004827 989.89594 
313170158076031 1379577677995817083 989.86597 
313170217102430 1379577678058805365 989.83594 
313170280981570 1379577678122709173 989.9459 
313170344616546 1379577678186124701 989.89594 
313170408221002 1379577678249875921 989.89594 
313170476128830 1379577678313199896 989.89594 
313170535613036 1379577678377042669 989.83594 
313170598942809 1379577678440391068 989.9459 
313170662791428 1379577678504539018 989.86597 
313170725815997 1379577678567649369 989.89594 
313170789878258 1379577678631675248 989.89594 
313170853024908 1379577678694663529 989.9859 
313170916873527 1379577678758658891 989.86597 
313170980569545 1379577678821952348 989.9459 
313171044021398 1379577678885764604 989.86597 
313171107320651 1379577678949058061 989.9459 
313171171443954 1379577679013114457 989.80597 
313171234529563 1379577679076041703 989.86597 
313171298652865 1379577679140281205 989.89594 
313171361494311 1379577679203252637 989.89594 
313171425403971 1379577679267186963 989.9459 
313171488825306 1379577679330541455 989.89594 
313171552612883 1379577679394323193 989.74603 
313171616217339 1379577679457677686 989.86597 
313171682477068 1379577679521489942 989.86597 
313171743121047 1379577679584630811 989.86597 
313171807213830 1379577679648809277 989.89594 
313171870116317 1379577679711767041 989.89594 
313171935277312 1379577679777013623 989.9859 
313171997508350 1379577679838964307 989.9459 
313172061204369 1379577679902868115 989.86597 
313172124900385 1379577679966283643 989.83594 
313172188260678 1379577680030004346 989.89594 
313172255069773 1379577680093297803 989.86597 
313172315500111 1379577680157171094 989.83594 
313172378677282 1379577680220311963 989.80597 
313172442892145 1379577680284490430 989.89594 
313172505855672 1379577680347448193 989.86597 
313172570070536 1379577680411565625 989.9859 
313172633461351 1379577680474584424 989.9459 
313172697096326 1379577680538579785 989.86597 
313172764576870 1379577680601842725 989.86597 
313172824061074 1379577680665685498 989.83594 
313172887268766 1379577680728856885 989.9459 
313172951971956 1379577680793035352 989.9459 
313173014966004 1379577680856231153 989.89594 
313173078662021 1379577680920348585 989.89594 
313173141595028 1379577680983397901 989.86597 
313173205474168 1379577681047301710 989.80597 
313173298378182 1379577681111144483 989.83594 
313173358014989 1379577681175475538 989.83594 
313173420917476 1379577681238555372 989.86597 
313173486292114 1379577681302245557 989.83594 
313173550445937 1379577681365355909 989.86597 
313173610113265 1379577681429503858 989.80597 
313173662547264 1379577681492370069 989.86597 
313173715835834 1379577681555999219 989.89594 
313173780142259 1379577681619123662 989.9459 
313173841121962 1379577681682935918 989.83594 
313173926029639 1379577681746351446 989.83594 
313173989573054 1379577681810621465 989.86597 
313174065599301 1379577681873945440 989.89594 
313174095356665 1379577681937177862 989.9459 
313174159235803 1379577682000349248 989.9459 
313174225495533 1379577682064619268 989.89594 
313174285864828 1379577682127546514 989.9459 
313174349957611 1379577682191602911 989.86597 
313174413317904 1379577682254835332 989.86597 
313174477136001 1379577682318647588 989.83594 
313174541533988 1379577682381971563 989.86597 
313174604283873 1379577682445783819 989.9459 
313174667338963 1379577682508955205 989.89594 
313174732255795 1379577682572920049 989.89594 
313174794914118 1379577682636091436 989.9459 
313174858762737 1379577682700300420 989.776 
313174922031471 1379577682763227666 989.80597 
313174985574886 1379577682827192510 989.89594 
313175049392984 1379577682890913213 989.86597 
313175113119521 1379577682954328741 989.86597 
313175177425945 1379577683017500127 989.83594 
313175240206353 1379577683081464971 989.776 
313175303139360 1379577683144636358 989.86597 
313175367384743 1379577683208814825 989.9459 
313175430287230 1379577683272045525 989.59607 
313175521482105 1379577683335979851 989.86597 
313175583224817 1379577683399151238 989.86597 
313175623511708 1379577683463055047 989.86597 
313175688947386 1379577683526256951 989.86597 
313175758289672 1379577683590710076 989.86597 
313175824824085 1379577683653393181 989.86597 
313175894776778 1379577683717358025 989.89594 
313175967232141 1379577683780529412 989.86597 
313176006633941 1379577683844707879 989.80597 
313176097462569 1379577683907757195 989.83594 
313176138726114 1379577683971630486 989.86597 
313176226502704 1379577684034984978 989.83594 
313176283789443 1379577684099513836 989.80597 
313176333873373 1379577684162105389 989.86597 
313176384170947 1379577684225948162 989.89594 
313176447226038 1379577684289058514 989.86597 
313176511624023 1379577684353236981 989.9459 
313176586643099 1379577684416194744 989.89594 
313176645638978 1379577684480403729 989.83594 
313176703230920 1379577684543483563 989.80597 
313176765889244 1379577684607356854 989.86597 
313176829066415 1379577684670711346 989.80597 
313176892853994 1379577684734493084 989.776 
313176960700782 1379577684797786541 989.89594 
313177020154467 1379577684861720867 989.86597 
313177083148516 1379577684924831219 989.80597 
313177147485460 1379577684989009686 989.83594 
313177210479510 1379577685051997967 989.89594 
313177274541770 1379577685115901776 989.86597 
313177338176746 1379577685179256268 989.89594 
313177401445478 1379577685243068524 989.86597 
313177464958374 1379577685306453533 989.89594 
313177528532309 1379577685370174236 989.80597 
313177592411449 1379577685433345623 989.83594 
313177656046425 1379577685497554608 989.86597 
313177719132034 1379577685560512371 989.89594 
313177783102735 1379577685624629803 989.9459 
313177846249385 1379577685687801190 989.86597 
313177910128524 1379577685751825772 989.83594 
313177976632416 1379577685815149747 989.89594 
313178038222526 1379577685878992520 989.89594 
313178100880852 1379577685942316495 989.80597 
313178164241144 1379577686006067715 989.86597 
313178227448836 1379577686069239102 989.86597 
313178291877342 1379577686133478604 989.86597 
313178355939604 1379577686196436368 989.89594 
313178418811571 1379577686260553799 989.86597 
313178481958220 1379577686323603116 989.9459 
313178545745799 1379577686387537442 989.86597 
313178609197653 1379577686450891934 989.83594 
313178673076792 1379577686514673672 989.83594 
313178736131882 1379577686577829138 989.83594 
313178800774031 1379577686642007605 989.776 
313178863218713 1379577686704965368 989.83594 
313178927494616 1379577686769113318 989.83594 
313178990519186 1379577686832071081 989.89594 
313179060868643 1379577686896096960 989.86597 
313179132927242 1379577686959939734 989.83594 
313179196714820 1379577687023843542 989.9459 
313179244814927 1379577687086496130 989.86597 
313179330790817 1379577687150949255 989.80597 
313179396043372 1379577687213968054 989.83594 
313179461601133 1379577687278146521 989.86597 
313179524564660 1379577687341165320 989.89594 
313179587680791 1379577687405526892 989.9459 
313179650583277 1379577687468454138 989.86597 
313179718033301 1379577687530893103 989.86597 
313179781149431 1379577687595681921 989.89594 
313179841823931 1379577687659494177 989.86597 
313179924106855 1379577687722696081 989.80597 
313179944952269 1379577687786599890 989.86597 
313180008617766 1379577687849374548 989.83594 
313180071642335 1379577687913369909 989.83594 
313180144982790 1379577687976327673 989.86597 
313180209869101 1379577688040506140 989.86597 
313180276250910 1379577688103616492 989.9459 
313180355390236 1379577688167978064 989.9459 
313180419208334 1379577688231448651 989.86597 
313180480462723 1379577688295352459 989.9759 
313180547058174 1379577688358493329 989.83594 
313180617560235 1379577688422824383 989.776 
313180676922359 1379577688485538006 989.89594 
313180738024144 1379577688549808026 989.9759 
313180799217492 1379577688612796307 989.80597 
313180842770062 1379577688676669598 989.86597 
313180900270444 1379577688739535809 989.83594 
313180961463790 1379577688803317547 989.89594 
313181028333926 1379577688866549969 989.9459 
313181110799973 1379577688930911541 989.86597 
313181180264339 1379577688993944310 989.83594 
313181242434338 1379577689058183812 989.83594 
313181307503772 1379577689121141576 989.86597 
313181375045355 1379577689185991429 989.83594 
313181429096936 1379577689248460912 989.9459 
313181490290282 1379577689312334203 989.86597 
313181561250148 1379577689375597142 989.89594 
313181624885124 1379577689439439916 989.83594 
313181695112501 1379577689502580785 989.80597 
313181749652405 1379577689566850804 989.80597 
313181809838581 1379577689629686498 989.776 
313181886200552 1379577689693956517 989.89594 
313181945257472 1379577689756822728 989.86597 
313181978585718 1379577689820360326 989.89594 
313182041884972 1379577689883470677 989.80597 
313182105550468 1379577689947374486 989.83594 
313182180661104 1379577690010820531 989.83594 
313182260563439 1379577690075426244 989.86597 
313182325693915 1379577690138750218 989.83594 
