#SysTm EventTmStmp Pressure
41442739854054 41441960577000 995.6807 
41442749828512 41442030623000 995.777 
41442766565179 41442100611000 995.74097 
41442776065262 41442170723000 995.7846 
41442788001012 41442243825000 995.7119 
41442799878679 41442310626000 995.73145 
41442812083346 41442380593000 995.8187 
41442828140054 41442450587000 995.745 
41442839620970 41442520604000 995.7649 
41442851910679 41442590629000 995.5844 
41442878291846 41442660903000 995.75354 
41442889492095 41442731022000 995.7592 
41442934600179 41442800640000 995.8298 
41442942632554 41442870629000 995.7236 
41443028891054 41442940579000 995.7881 
41443037904554 41443010615000 995.68964 
41443080929971 41443080602000 995.6622 
41443150939346 41443150635000 995.6861 
41443220971846 41443220604000 995.73267 
41443294960096 41443290593000 995.74915 
41443360850429 41443360587000 995.7665 
41443431056762 41443430658000 995.709 
41443501710387 41443500659000 995.8189 
41443570890138 41443570582000 995.6954 
41443641065554 41443640627000 995.6992 
41443710983929 41443710638000 995.6144 
41443781961346 41443780584000 995.67426 
41443850750679 41443850561000 995.64374 
41443940276930 41443925182000 995.7079 
41443998123513 41443997855000 995.7809 
41444065903638 41444065620000 995.7468 
41444137245013 41444136847000 995.64886 
41444207224638 41444206886000 995.74255 
41444276913180 41444276547000 995.7518 
41444345957722 41444345593000 995.6958 
41444415911305 41444415586000 995.7506 
41444485908305 41444485578000 995.68 
41444555933013 41444555596000 995.77075 
41444629893805 41444626616000 995.75275 
41444698437139 41444696155000 995.78766 
41444765873764 41444765590000 995.83636 
41444836055846 41444835649000 995.77856 
41444905886055 41444905596000 995.7321 
41444975889680 41444975613000 995.7491 
41445047161846 41445045660000 995.6901 
41445116032054 41445115647000 995.75287 
41445185858596 41445185592000 995.8094 
41445256254429 41445255703000 995.8129 
41445329239138 41445325561000 995.8809 
41445396101763 41445395581000 995.83215 
41445465983222 41445465672000 995.8184 
41445535891680 41445535595000 995.7677 
41445605795305 41445605559000 995.82965 
41445675940805 41445675586000 995.79205 
41445745938180 41445745614000 995.77 
41445815936472 41445815600000 995.82465 
41445885956140 41445885630000 995.6868 
41445956037972 41445955593000 995.8326 
41446025998556 41446025604000 995.8359 
41446099150347 41446095634000 995.8265 
41446166099347 41446165780000 995.81494 
41446235847806 41446235579000 995.7731 
41446306015014 41446305594000 995.63654 
41446375853181 41446375578000 995.6912 
41446445824931 41446445611000 995.70483 
41446515962348 41446515639000 995.73016 
41446585838098 41446585578000 995.7133 
41446655833639 41446655584000 995.7241 
41446731525265 41446725640000 995.8079 
41446803342806 41446795655000 995.85925 
41446866037640 41446865643000 995.7676 
41446935864807 41446935592000 995.7554 
41447005869515 41447005584000 995.65393 
41447076053640 41447075644000 995.74646 
41447145895973 41447145573000 995.6646 
41447216025890 41447215656000 995.7674 
41447312372890 41447290732000 995.6938 
41447364328806 41447360621000 995.6676 
41447432818265 41447430561000 995.6196 
41447500839598 41447500584000 995.69165 
41447570823098 41447570551000 995.82324 
41447643230390 41447642909000 995.66095 
41447711484057 41447710627000 995.6631 
41447780868890 41447780622000 995.7466 
41447851988057 41447851672000 995.71204 
41447921177307 41447920890000 995.8432 
41447996461681 41447991621000 995.79694 
41448064052598 41448062123000 995.7621 
41448130981265 41448130658000 995.7463 
41448203465598 41448201673000 995.7644 
41448270952140 41448270643000 995.77 
41448340900765 41448340595000 995.67523 
41448410912681 41448410609000 995.6887 
41448480854806 41448480593000 995.6664 
41448550869765 41448550596000 995.71466 
41448621014806 41448620613000 995.6474 
41448691023848 41448690660000 995.70935 
41448760776181 41448760543000 995.7477 
41448830912181 41448830589000 995.7041 
41448902020015 41448900716000 995.63904 
41448970876098 41448970612000 995.7094 
41449041878307 41449040626000 995.63434 
41449111141348 41449110699000 995.71106 
41449180932307 41449180649000 995.77576 
41449252558640 41449250710000 995.75824 
41449322534973 41449320619000 995.724 
41449391135723 41449390644000 995.6888 
41449464323640 41449460688000 995.7594 
41449530875723 41449530621000 995.7913 
41449600909681 41449600618000 995.8106 
41449670887599 41449670593000 995.7139 
41449741094933 41449740668000 995.70087 
41449811248224 41449810642000 995.7843 
41449880868433 41449880578000 995.8276 
41449950999891 41449950612000 995.78217 
41450020930557 41450020601000 995.75665 
41450091107891 41450090710000 995.7181 
41450160927349 41450160602000 995.73914 
41450230918932 41450230584000 995.6209 
41450300919224 41450300584000 995.5894 
41450373295725 41450370739000 995.6291 
41450440893475 41450440624000 995.71735 
41450510974850 41450510664000 995.6046 
41450580891058 41450580632000 995.8059 
41450650923391 41450650613000 995.73627 
41450720946932 41450720629000 995.73224 
41450802179182 41450791180000 995.73517 
41450862856891 41450860580000 995.7523 
41450930821266 41450930578000 995.7665 
41451000881932 41451000590000 995.7689 
41451071110767 41451070710000 995.7914 
41451141055809 41451140656000 995.8168 
41451212566183 41451211780000 995.6859 
41451280994267 41451280643000 995.73956 
41451350924934 41451350601000 995.5893 
41451421036850 41451420646000 995.777 
41451490893642 41451490603000 995.7642 
41451563047975 41451560764000 995.737 
41451630971184 41451630613000 995.7527 
41451702903892 41451700615000 995.60956 
41451770876017 41451770606000 995.68536 
41451841988642 41451840652000 995.7238 
41451910848975 41451910597000 995.7639 
41451980772725 41451980560000 995.7862 
41452050998350 41452050669000 995.7812 
41452120817892 41452120584000 995.74164 
41452190916558 41452190629000 995.7227 
41452267497766 41452260693000 995.8523 
41452332178975 41452330607000 995.7761 
41452400895850 41452400593000 995.71893 
41452472923934 41452472641000 995.70404 
41452540986101 41452540650000 995.7619 
41452611174767 41452610657000 995.7334 
41452682073642 41452681770000 995.6171 
41452751873976 41452751575000 995.68616 
41452823554142 41452820609000 995.70026 
41452890884518 41452890605000 995.7125 
41452961079476 41452960624000 995.7737 
41453030846892 41453030563000 995.8197 
41453100803892 41453100554000 995.8528 
41453170918017 41453170587000 995.83075 
41453242760434 41453240594000 995.6824 
41453310861726 41453310601000 995.7454 
41453381053892 41453380665000 995.808 
41453450847184 41453450594000 995.68353 
41453520994767 41453520627000 995.7347 
41453591425726 41453590668000 995.7644 
41453662632809 41453660586000 995.7556 
41453730975517 41453730650000 995.6804 
41453801003684 41453800653000 995.8703 
41453870859726 41453870571000 995.8784 
41453941048684 41453940643000 995.7917 
41454011103185 41454010677000 995.7157 
41454080834185 41454080572000 995.6707 
41454151099685 41454150657000 995.7388 
41454220924101 41454220585000 995.74133 
41454290874227 41454290586000 995.8003 
41454361144476 41454360654000 995.82324 
41454430927143 41454430578000 995.7072 
41454500909560 41454500622000 995.72046 
41454571037310 41454570642000 995.78705 
41454640893519 41454640578000 995.82764 
41454711541435 41454710623000 995.8072 
41454780918477 41454780655000 995.79175 
41454851193476 41454850681000 995.6955 
41454920847309 41454920586000 995.6946 
41454990843601 41454990595000 995.75696 
41455065428684 41455060690000 995.781 
41455130846934 41455130588000 995.87067 
41455200821684 41455200571000 995.7442 
41455273459059 41455273140000 995.8172 
41455340888143 41455340559000 995.80145 
41455410930143 41455410617000 995.84094 
41455481086976 41455480629000 995.7274 
41455566790268 41455550593000 995.771 
41455641414393 41455620593000 995.7833 
41455701392560 41455690665000 995.77374 
41455767683018 41455760585000 995.7424 
41455847874935 41455830578000 995.67316 
41455908205143 41455900557000 995.71295 
41455978094685 41455970558000 995.77136 
41456054485643 41456040591000 995.7387 
41456125724643 41456110615000 995.83057 
41456197580352 41456180672000 995.7781 
41456276846727 41456250598000 995.6775 
41456338142852 41456320565000 995.7475 
41456410995268 41456390947000 995.76294 
41456462918478 41456460573000 995.9099 
41456530763144 41456530554000 995.81024 
41456600765727 41456600565000 995.7923 
41456671099769 41456670683000 995.8229 
41456741042686 41456740679000 995.7999 
41456810894728 41456810594000 995.8104 
41456880985269 41456880618000 995.77216 
41456950923310 41456950591000 995.84204 
41457020852269 41457020572000 995.8256 
41457091090935 41457090561000 995.7416 
41457160934644 41457160569000 995.78577 
41457231298685 41457230961000 995.81036 
41457300842477 41457300567000 995.85767 
41457384157686 41457370575000 995.8107 
41457440832728 41457440554000 995.7167 
41457510980811 41457510604000 995.7499 
41457580949478 41457580632000 995.72925 
41457652713686 41457650614000 995.85596 
41457720971144 41457720578000 995.6341 
41457797158937 41457790577000 995.8328 
41457862674645 41457860576000 995.8235 
41457930787562 41457930571000 995.8115 
41458000935687 41458000615000 995.8755 
41458070857728 41458070579000 995.8013 
41458141868853 41458140737000 995.8963 
41458211264187 41458210602000 995.7072 
41458280805062 41458280574000 995.7896 
41458350861353 41458350605000 995.82446 
41458420977937 41458420649000 995.87067 
41458490881354 41458490601000 995.82074 
41458560933270 41458560616000 995.87897 
41458630851937 41458630561000 995.8576 
41458700835937 41458700567000 995.7199 
41458770833854 41458770560000 995.66547 
41458841499604 41458840667000 995.7077 
41458910888520 41458910580000 995.7571 
41458980743145 41458980551000 995.7433 
41459054440020 41459050871000 995.79834 
41459120790438 41459120579000 995.8644 
41459196024729 41459190580000 995.8008 
41459263453062 41459260589000 995.73816 
41459343843604 41459330587000 995.79297 
41459401311229 41459400638000 995.81604 
41459470989271 41459470684000 995.84546 
41459540875979 41459540568000 995.8508 
41459610871979 41459610556000 995.7383 
41459681296896 41459680646000 995.70807 
41459751298604 41459750667000 995.6554 
41459829744312 41459820592000 995.78 
41459890834729 41459890555000 995.7562 
41459960862313 41459960564000 995.76245 
41460031758645 41460030703000 995.81305 
41460100814979 41460100554000 995.8067 
41460171000812 41460170703000 995.7435 
41460240931063 41460240610000 995.83307 
41460310880354 41460310598000 995.8409 
41460380792604 41460380577000 995.8548 
41460451374479 41460450666000 995.773 
41460529883646 41460520642000 995.7238 
41460591576396 41460590599000 995.8028 
41460667266521 41460660605000 995.7912 
41460730775396 41460730581000 995.72296 
41460802340979 41460800562000 995.7096 
41460870928813 41460870586000 995.8019 
41460941542480 41460940604000 995.84534 
41461010774563 41461010550000 995.91534 
41461080879813 41461080579000 995.9148 
41461150948146 41461150707000 995.802 
41461220898229 41461220572000 995.82983 
41461291019146 41461290630000 995.7878 
41461361089062 41461360646000 995.8893 
41461430929812 41461430599000 995.87744 
41461500939437 41461500614000 995.74835 
41461571119271 41461570668000 995.7226 
41461640950187 41461640636000 995.87537 
41461710945312 41461710644000 995.71826 
41461780968187 41461780645000 995.766 
41461852496979 41461850613000 995.8388 
41461920938479 41461920619000 995.85706 
41461991315104 41461990754000 995.81824 
41462064087271 41462060584000 995.82965 
41462132727271 41462130672000 995.8398 
41462201160687 41462200698000 995.8096 
41462270925064 41462270629000 995.8649 
41462358399438 41462340724000 995.7726 
41462411307522 41462410746000 995.8156 
41462481066189 41462480636000 995.83624 
41462550988689 41462550653000 995.90515 
41462621053064 41462620684000 995.84015 
41462712178230 41462690589000 995.82855 
41462760871856 41462760566000 995.848 
41462844285938 41462830588000 995.94635 
41462900864272 41462900569000 995.8633 
41462970831231 41462970547000 995.7739 
41463040984272 41463040637000 995.7943 
41463110853356 41463110566000 995.8029 
41463180751272 41463180559000 995.8481 
41463250783022 41463250568000 995.8982 
41463321027356 41463320710000 995.90717 
41463390884398 41463390626000 995.8916 
41463465209356 41463460573000 995.8757 
41463531477523 41463530564000 995.817 
41463600795898 41463600564000 995.80615 
41463674503897 41463670795000 995.80237 
41463740789356 41463740550000 995.7751 
41463810844773 41463810589000 995.72833 
41463880897815 41463880615000 995.7426 
41463950908898 41463950599000 995.81055 
41464021111565 41464020690000 995.85 
41464090855731 41464090574000 995.74396 
41464160875898 41464160581000 995.87915 
41464230958648 41464230604000 995.9232 
41464300892190 41464300597000 995.7429 
41464370893940 41464370575000 995.7755 
41464440841815 41464440569000 995.85406 
41464510903190 41464510583000 995.8346 
41464580747314 41464580557000 995.79834 
41464650893731 41464650632000 995.80145 
41464720798940 41464720580000 995.8021 
41464796092523 41464790631000 995.7771 
41464867406522 41464861240000 995.7994 
41464942369356 41464930562000 995.8778 
41465045851689 41465000631000 995.8339 
41465070809981 41465070568000 995.83093 
41465140977481 41465140705000 995.87537 
41465210823356 41465210575000 995.8815 
41465280876773 41465280584000 995.827 
41465350777356 41465350556000 995.8007 
41465420895648 41465420586000 995.7358 
41465490780773 41465490571000 995.8692 
41465560810231 41465560572000 995.76324 
41465630862814 41465630617000 995.83636 
41465700912398 41465700620000 995.74023 
41465770824482 41465770566000 995.816 
41465840817315 41465840606000 995.8298 
41465911327941 41465910654000 995.777 
41465980810524 41465980604000 995.8933 
41466050811399 41466050579000 995.7936 
41466120789148 41466120572000 995.79517 
41466195934023 41466190606000 995.7632 
41466264176107 41466260645000 995.76294 
41466330979649 41466330581000 995.8023 
41466400867191 41466400605000 995.7548 
41466470811690 41466470588000 995.8641 
41466540848857 41466540594000 995.7984 
41466617182440 41466610573000 995.77924 
41466681147108 41466680581000 995.8334 
41466750871191 41466750610000 995.78217 
41466820846650 41466820581000 995.7807 
41466890817775 41466890579000 995.77264 
41466961097066 41466960580000 995.6973 
41467030876483 41467030618000 995.85205 
41467100864983 41467100610000 995.76715 
41467170806357 41467170587000 995.6912 
41467241054774 41467240696000 995.7522 
41467311020607 41467310720000 995.85474 
41467380854691 41467380606000 995.888 
41467450965399 41467450639000 995.81525 
41467520863482 41467520591000 995.8108 
41467606039524 41467590616000 995.8581 
41467685119233 41467662347000 995.9278 
41467747636274 41467730564000 995.83716 
41467815517274 41467803288000 995.8758 
41467882912857 41467870585000 995.9344 
41467947911399 41467940568000 995.76764 
41468017960482 41468010580000 995.82715 
41468082746774 41468080607000 995.9104 
41468150828149 41468150597000 995.8301 
41468220836733 41468220606000 995.81146 
41468290850190 41468290607000 995.7737 
41468361179482 41468360726000 995.80426 
41468442096482 41468430619000 995.7675 
41468532831358 41468500718000 995.79956 
41468597986025 41468570565000 995.7068 
41468664982941 41468640575000 995.7011 
41468717011441 41468710607000 995.83856 
41468780881524 41468780619000 995.838 
41468850911316 41468850658000 995.8089 
41468920929858 41468920663000 995.85974 
41468990876733 41468990610000 995.8909 
41469066620774 41469060953000 995.83093 
41469149397649 41469130693000 995.86804 
41469206682483 41469200606000 995.7955 
41469270849316 41469270589000 995.73126 
41469340853608 41469340600000 995.88794 
41469411059692 41469410618000 995.8398 
41469480830691 41469480601000 995.87634 
41469550815150 41469550584000 995.7895 
41469620980525 41469620619000 995.75934 
41469690846651 41469690590000 995.85693 
41469760783693 41469760574000 995.8973 
41469831454443 41469830637000 995.81573 
41469904090692 41469900595000 995.91925 
41469970907943 41469970610000 995.8382 
41470040893526 41470040588000 995.79443 
41470110880901 41470110628000 995.84625 
41470180793734 41470180580000 995.74756 
41470250896068 41470250600000 995.8277 
41470320881943 41470320657000 995.86847 
41470395907443 41470390594000 995.7961 
41470463995401 41470460912000 995.80493 
41470531185693 41470530598000 995.71747 
41470600880068 41470600608000 995.8563 
41470670965234 41470670619000 995.72504 
41470740796193 41470740567000 995.8036 
41470810780734 41470810566000 995.8648 
41470881068484 41470880700000 995.8693 
41470951022859 41470950700000 995.84106 
41471020825026 41471020571000 995.8856 
41471091006859 41471090618000 995.8344 
41471160979067 41471160710000 995.81006 
41471230848359 41471230588000 995.88776 
41471300968317 41471300646000 995.8325 
41471370812276 41471370556000 995.89246 
41471441395526 41471440630000 995.8373 
41471511412193 41471510652000 995.87964 
41471580910943 41471580633000 995.9566 
41471650890693 41471650599000 995.81757 
41471721043735 41471720616000 995.8918 
41471790998151 41471790663000 995.8522 
41471863569693 41471860604000 995.89874 
41471932093151 41471931633000 995.9092 
41472002937485 41472000725000 995.9234 
41472070892235 41472070588000 995.8353 
41472140801194 41472140548000 995.84357 
41472210845235 41472210558000 995.8296 
41472280879069 41472280578000 995.8117 
41472353353027 41472350593000 995.8687 
41472420834443 41472420589000 995.9098 
41472490855526 41472490585000 995.8873 
41472561031860 41472560628000 995.8436 
41472630863569 41472630580000 995.89215 
41472700890694 41472700590000 995.7845 
41472771096360 41472770646000 995.7591 
41472840848360 41472840591000 995.77716 
41472910902194 41472910600000 995.7796 
41472980959527 41472980656000 995.79736 
41473050749569 41473050558000 995.81616 
41473121287319 41473120718000 995.8077 
41473190842569 41473190584000 995.8247 
41473262506027 41473260594000 995.95197 
41473330831194 41473330585000 995.7844 
41473410649402 41473400565000 995.8973 
41473470837361 41473470602000 995.84064 
41473541035361 41473540601000 995.77997 
41473610873027 41473610597000 995.83826 
41473680914069 41473680600000 995.8327 
41473750936111 41473750590000 995.7777 
41473822604402 41473820708000 995.82837 
41473890832652 41473890589000 995.81256 
41473960868320 41473960610000 995.8515 
41474030965070 41474030643000 995.8531 
41474101148611 41474100679000 995.8813 
41474171058070 41474170663000 995.88995 
41474241111320 41474240649000 995.8429 
41474311202945 41474310679000 995.7388 
41474380785945 41474380576000 995.81885 
41474450915820 41474450620000 995.9339 
41474520818695 41474520574000 995.84375 
41474590876945 41474590615000 995.89703 
41474663806194 41474660634000 995.988 
41474731381986 41474730661000 995.8691 
41474800806611 41474800588000 995.8061 
41474871316445 41474870749000 995.8604 
41474940892111 41474940608000 995.8117 
41475010882153 41475010585000 995.7471 
41475081168319 41475080657000 995.7515 
41475150991236 41475150644000 995.8107 
41475221330570 41475220702000 995.8491 
41475292932611 41475290671000 995.7482 
41475360816570 41475360568000 995.7719 
41475430972195 41475430637000 995.8559 
41475501115987 41475500653000 995.73474 
41475570883403 41475570599000 995.84515 
41475640993445 41475640635000 995.8298 
41475721327902 41475712262000 995.8056 
41475780776528 41475780570000 995.86005 
41475850894986 41475850636000 995.89984 
41475921091903 41475920703000 995.8088 
41475991246320 41475990623000 995.94073 
41476063422278 41476060594000 995.82635 
41476130845737 41476130599000 995.7709 
41476200870571 41476200604000 995.8713 
41476271328321 41476270707000 995.7816 
41476341821904 41476341568000 995.8913 
41476411770029 41476411517000 995.86566 
41476480953111 41476480621000 995.863 
41476551832444 41476551447000 995.83997 
