#SysTm EventTmStmp Pressure
285024427603203 1378831507747699699 998.40125 
285024549837294 1378831508320449725 998.55115 
285024589818982 1378831508383529559 998.61115 
285024675550708 1378831508447402850 998.24133 
285024737842788 1378831508510543719 998.4912 
285024842802348 1378831508637710467 998.3713 
285024914738866 1378831508701644793 998.30133 
285024958444039 1378831508764846697 998.4313 
285025023360870 1378831508828781023 998.3713 
285025082997679 1378831508891982928 998.4313 
285025146113808 1378831508955917254 998.46124 
285025206299983 1378831509019851580 998.4313 
285025267066044 1378831509083084002 998.40125 
285025327740544 1378831509146224871 998.3713 
285025393481427 1378831509210189715 998.3713 
285025455010497 1378831509273391619 998.4313 
285025515471355 1378831509337325945 998.4313 
285025578923209 1378831509400527850 998.3713 
285025645060855 1378831509464492693 998.4313 
285025705582755 1378831509527633562 998.3713 
285025777153027 1378831509591598406 998.4313 
285025848387576 1378831509654800310 998.40125 
285025920385134 1378831509718765154 998.4912 
285025990520951 1378831509781997576 998.40125 
285026109367281 1378831509845931902 998.3713 
285026276832562 1378831509973068133 998.4313 
285026375840651 1378831510163375750 998.40125 
285026422689423 1378831510228317156 998.3713 
285026487850417 1378831510290511980 998.40125 
285026560336301 1378831510354507342 998.4313 
285026627145398 1378831510417678728 998.3313 
285026700913137 1378831510481613055 998.4313 
285026821529649 1378831510608779803 998.46124 
285026881685302 1378831510671951189 998.40125 
285026932410162 1378831510735946551 998.46124 
285026994091834 1378831510799087420 998.4912 
285027055285179 1378831510863052264 998.3713 
285027116203844 1378831510926223650 998.46124 
285027182982418 1378831510990188494 998.46124 
285027243840040 1378831511053329363 998.46124 
285027310252371 1378831511117324725 998.4313 
285027371232074 1378831511180496111 998.4313 
285027431448771 1378831511244785067 998.46124 
285027490597252 1378831511307956454 998.4912 
285027556490735 1378831511371921297 998.3713 
285027616707429 1378831511435092684 998.4313 
285027682326231 1378831511499057528 998.40125 
285027741444192 1378831511562228915 998.40125 
285027801660885 1378831511626163241 998.3313 
285027860778847 1378831511689365145 998.46124 
285027926214525 1378831511753329989 998.4313 
285027986492262 1378831511816501376 998.40125 
285028050859726 1378831511880466219 998.4912 
285028114220019 1378831511943607089 998.3713 
285028182494092 1378831512007602450 998.3713 
285028243901082 1378831512070773837 998.4313 
285028311015381 1378831512134738680 998.4912 
285028372208727 1378831512197879549 998.4313 
285028434226123 1378831512261874911 998.3313 
285028522674161 1378831512325046297 998.46124 
285028586461741 1378831512389011141 998.5212 
285028647502485 1378831512452182528 998.46124 
285028714799906 1378831512516116854 998.4313 
285028775657530 1378831512579318758 998.4912 
285028842039339 1378831512643283602 998.4912 
285028904117776 1378831512706454989 998.40125 
285028965219562 1378831512770419833 998.46124 
285029025924582 1378831512833591219 998.46124 
285029094534379 1378831512897643784 998.40125 
285029154720553 1378831512960815171 998.5212 
285029221407567 1378831513024749497 998.40125 
285029282539872 1378831513087890366 998.40125 
285029345198198 1378831513151885727 998.40125 
285029431753972 1378831513215087632 998.4912 
285029543519576 1378831513279052476 998.4912 
285029641459452 1378831513406158188 998.4912 
285029743946861 1378831513533324936 998.4912 
285029804957086 1378831513596496323 998.4313 
285029907261374 1378831513723602036 998.46124 
285029975077641 1378831513787566880 998.4912 
285030036393070 1378831513850768784 998.40125 
285030103171644 1378831513914733628 998.40125 
285030164151349 1378831513977905015 998.46124 
285030225985623 1378831514041839341 998.4912 
285030287240009 1378831514105041245 998.4313 
285030347334623 1378831514169677476 998.4313 
285030408466929 1378831514232146958 998.3713 
285030469538193 1378831514296142319 998.46124 
285030531982876 1378831514359222153 998.40125 
285030602912221 1378831514423278550 998.4912 
285030665753668 1378831514486449936 998.4912 
285030733600455 1378831514550384263 998.4313 
285030801233601 1378831514613555649 998.4313 
285030867798532 1378831514677551011 998.4313 
285031018904896 1378831514740722397 998.40125 
285031253240316 1378831514804687241 998.40125 
285031351454873 1378831514994994858 998.3413 
285031441001646 1378831515249267319 998.40125 
285031509031555 1378831515313232163 998.40125 
285031571048952 1378831515376403550 998.4313 
285031637766486 1378831515440307358 998.3413 
285031699112434 1378831515503539780 998.3713 
285031763388339 1378831515567413071 998.46124 
285031858886585 1378831515630676011 998.4313 
285031926245046 1378831515694640854 998.3713 
285032023543993 1378831515821777085 998.40125 
285032084676299 1378831515884948472 998.30133 
285032147822948 1378831515948882798 998.46124 
285032209901386 1378831516012054185 998.4313 
285032274604575 1378831516076434693 998.3713 
285032343458536 1378831516139606080 998.4912 
285032410542314 1378831516203570923 998.4313 
285032522735203 1378831516266742310 998.4313 
285032585027282 1378831516330676636 998.4313 
285032690292047 1378831516457843384 998.3713 
285032785942894 1378831516585040650 998.46124 
285032849730471 1378831516648151001 998.4313 
285032915440834 1378831516712115845 998.4313 
285032977397189 1378831516775287232 998.40125 
285033040757482 1378831516839252076 998.46124 
285033101218340 1378831516902423462 998.3713 
285033167142344 1378831516966388306 998.4912 
285033227023315 1378831517029559693 998.30133 
285033293099921 1378831517093524537 998.40125 
285033352706208 1378831517156665406 998.3713 
285033414876207 1378831517220660767 998.3713 
285033477076725 1378831517284106812 998.4912 
285033538911000 1378831517347766480 998.4313 
285033599188735 1378831517410968384 998.30133 
285033658703461 1378831517474902710 998.3713 
285033718126626 1378831517538104615 998.46124 
285033777183546 1378831517602069458 998.4313 
285033837125559 1378831517665240845 998.40125 
285033897952660 1378831517729295965 998.4313 
285033957864151 1378831517792497869 998.46124 
285034018111365 1378831517856462713 998.3413 
285034079762518 1378831517919603582 998.4313 
285034144679351 1378831517983934637 998.3413 
285034210115028 1378831518046739813 998.4313 
285034275337064 1378831518110704656 998.3413 
285034337079778 1378831518173876043 998.30133 
285034398791970 1378831518237840887 998.40125 
285034462030182 1378831518301012274 998.3713 
285034544740390 1378831518364977117 998.40125 
285034603766791 1378831518428148504 998.40125 
285034686538040 1378831518492693182 998.40125 
285034753347137 1378831518555482440 998.40125 
285034812220934 1378831518619416767 998.40125 
285034870118081 1378831518682588153 998.40125 
285034928595113 1378831518746583515 998.4313 
285034987743595 1378831518809754901 998.4313 
285035048601218 1378831518873719745 998.40125 
285035123284569 1378831518936860614 998.4313 
285035182066806 1378831519000866268 998.3413 
285035241398409 1378831519064007137 998.4313 
285035305033386 1378831519128002499 998.3413 
285035365768928 1378831519191173885 998.40125 
285035431235126 1378831519255108211 998.40125 
285035492184310 1378831519318310116 998.4313 
285035551912678 1378831519382244442 998.46124 
285035610542314 1378831519445385311 998.40125 
285035669995999 1378831519509411190 998.3413 
285035737446022 1378831519572552059 998.40125 
285035810328671 1378831519636516903 998.3713 
285035878938467 1378831519699749325 998.40125 
285035955269919 1378831519763622616 998.40125 
285036192321650 1378831519826839105 998.40125 
285036367722231 1378831519954005853 998.30133 
285036459374909 1378831520272273676 998.3413 
285036517546738 1378831520335414545 998.40125 
285036583836987 1378831520399379389 998.3713 
285036690505690 1378831520462581293 998.3713 
285036760122659 1378831520526546137 998.3413 
285036871125252 1378831520653621332 998.40125 
285036933844617 1378831520716853754 998.40125 
285037060412603 1378831520843959467 998.3713 
285037156002408 1378831520971095697 998.3713 
285037214693083 1378831521035060541 998.40125 
285037274970819 1378831521098292963 998.3713 
285037340192856 1378831521162257807 998.3413 
285037398181563 1378831521225429193 998.3713 
285037456811198 1378831521289394037 998.3713 
285037516478525 1378831521352565424 998.4912 
285037580815470 1378831521416530268 998.40125 
285037639261985 1378831521479883482 998.3713 
285037697922140 1378831521543817808 998.40125 
285037780113502 1378831521607019713 998.40125 
285037950325619 1378831521670984556 998.3413 
285038083119758 1378831521734155943 998.4313 
285038256963800 1378831521923639586 998.4313 
285038301370941 1378831522052362730 998.5212 
285038359970055 1378831522115473082 998.40125 
285038433096868 1378831522242609312 998.3413 
285038498746189 1378831522306680381 998.40125 
285038557619987 1378831522369851768 998.46124 
285038622536820 1378831522433786094 998.40125 
285038682875596 1378831522496957481 998.46124 
285038742756566 1378831522560922325 998.3713 
285038802454415 1378831522624124229 998.3713 
285038868744663 1378831522688058555 998.3413 
285038930426337 1378831522751229942 998.3713 
285038998639368 1378831522815530479 998.3713 
285039057909930 1378831522878366172 998.4313 
285039124902148 1378831522942331016 998.4912 
285039184966241 1378831523005471885 998.40125 
285039259405430 1378831523069467246 998.3713 
285039340467538 1378831523131753623 998.4313 
285039402607017 1378831523196633995 998.40125 
285039464410770 1378831523259805381 998.3713 
285039523193008 1378831523323739707 998.40125 
285039624032317 1378831523386941612 998.40125 
285039689284874 1378831523450845420 998.3713 
285039783470743 1378831523578042686 998.46124 
285039827145395 1378831523641183555 998.3713 
285039887148448 1378831523705148399 998.3713 
285039946602133 1378831523768319786 998.40125 
285040005506452 1378831523832284629 998.3713 
285040071338895 1378831523895456016 998.4313 
285040138331111 1378831523959572173 998.3713 
285040200379029 1378831524022743559 998.4313 
285040260778846 1378831524086769438 998.40125 
285040321087101 1378831524149940825 998.4313 
285040386003934 1378831524213905669 998.4313 
285040445701781 1378831524277077056 998.46124 
285040511503705 1378831524340828276 998.3413 
285040570530104 1378831524404182768 998.46124 
285040632913747 1378831524468178130 998.4313 
285040694900622 1378831524531288481 998.40125 
285040756582294 1378831524595375395 998.4313 
285040822201096 1378831524658485747 998.40125 
285040889467995 1378831524722450591 998.40125 
285040957589467 1378831524785728128 998.46124 
285041024307002 1378831524849662455 998.40125 
285041204071994 1378831524912833841 998.4313 
285041395739932 1378831524976798685 998.4313 
285041506071078 1378831525167075785 998.40125 
285041543183851 1378831525358248148 998.46124 
285041603247943 1378831525421389018 998.40125 
285041662304865 1378831525485323344 998.40125 
285041722460518 1378831525548586283 998.46124 
285041787590994 1378831525612490092 998.3713 
285041846678434 1378831525675661479 998.40125 
285041907658137 1378831525739565287 998.3713 
285041967996913 1378831525802828227 998.46124 
285042034622887 1378831525866762553 998.46124 
285042116325923 1378831525929903422 998.40125 
285042183073977 1378831525993929301 998.3713 
285042256170269 1378831526057176334 998.40125 
285042315288231 1378831526121110660 998.40125 
285042374162028 1378831526184343082 998.3713 
285042443962120 1378831526248155337 998.46124 
285042508146463 1378831526311387759 998.3713 
285042568515760 1378831526375413638 998.46124 
285042628793495 1378831526438523990 998.46124 
285042694107092 1378831526502519351 998.40125 
285042753530257 1378831526565721255 998.3713 
285042818630211 1378831526629686099 998.5212 
285042878114417 1378831526692796451 998.4313 
285042938453193 1378831526756822330 998.46124 
285042997479593 1378831526819963199 998.3713 
285043061969140 1378831526883928043 998.40125 
285043119988368 1378831526947648746 998.4313 
285043181609000 1378831527011094791 998.46124 
285043240452278 1378831527074235660 998.46124 
285043304361937 1378831527138200503 998.4313 
285043362503246 1378831527201432925 998.4912 
285043425985621 1378831527265397769 998.4313 
285043484157450 1378831527328569156 998.4313 
285043550844464 1378831527392534000 998.3713 
285043611213760 1378831527456712466 998.46124 
285043670697966 1378831527519670230 998.40125 
285043729266561 1378831527582841617 998.46124 
285043788811808 1378831527646806460 998.3713 
285043849547348 1378831527710098645 998.46124 
285043933203688 1378831527774032971 998.40125 
285043994335994 1378831527837234876 998.4313 
285044054766333 1378831527901138684 998.40125 
285044119072756 1378831527964310071 998.40125 
285044183135018 1378831528028305432 998.3713 
285044244267323 1378831528091446301 998.46124 
285044305185987 1378831528156235120 998.46124 
285044365005918 1378831528218613050 998.3413 
285044424307000 1378831528282547376 998.4313 
285044488308221 1378831528345749280 998.46124 
285044563418858 1378831528409714124 998.4313 
285044623971276 1378831528472854993 998.4313 
285044683211320 1378831528536834516 998.40125 
285044743519575 1378831528600066938 998.46124 
285045383470742 1378831528664001264 998.46124 
285045484340572 1378831529235748090 998.27136 
285045574070467 1378831529362853803 998.40125 
285045622536819 1378831529426788129 998.3413 
285045685775030 1378831529489990034 998.46124 
285045746541091 1378831529553924360 998.30133 
285045806330501 1378831529617156782 998.40125 
285045869141427 1378831529681121625 998.46124 
285045932165996 1378831529744231977 998.4313 
285045994213913 1378831529808227338 998.40125 
285046064746493 1378831529871459760 998.5212 
285046125848280 1378831529935424604 998.4912 
285046184538955 1378831529998595991 998.40125 
285046243962119 1378831530062560834 998.4313 
285046302805398 1378831530125732221 998.3413 
285046362167521 1378831530189878890 998.30133 
285046422353698 1378831530253050277 998.4313 
285046483516523 1378831530317015120 998.3713 
285046546480050 1378831530380186507 998.40125 
285046607398714 1378831530444120833 998.3713 
285046667920613 1378831530507322738 998.46124 
285046728473031 1378831530571287581 998.3713 
285046789269612 1378831530634397933 998.3713 
285046850432439 1378831530698423812 998.5212 
285046910588093 1378831530761595198 998.30133 
285046971232074 1378831530825560042 998.30133 
285047034622886 1378831530888670394 998.3413 
285047094076571 1378831530952665755 998.46124 
285047639628226 1378831531016065380 998.40125 
285047737018735 1378831531524427197 998.6511 
285047775230241 1378831531588392040 998.3413 
285047837308679 1378831531651593945 998.3713 
285047922094273 1378831531715558788 998.40125 
285047982127844 1378831531778699658 998.3413 
285048068805703 1378831531842695019 998.46124 
285048115074587 1378831531905866406 998.4912 
285048201905047 1378831531969800732 998.55115 
285048284615256 1378831532033002636 998.3713 
285048380937551 1378831532160108349 998.40125 
285048517699338 1378831532287183544 998.40125 
285048612098851 1378831532414380810 998.4313 
285048678572222 1378831532478284619 998.4912 
285048742756565 1378831532541456005 998.40125 
285048808711090 1378831532605451367 998.40125 
285048874299369 1378831532668738732 998.40125 
285048939307764 1378831532732734093 998.4313 
285049003766789 1378831532795935997 998.40125 
285049068012173 1378831532859900841 998.40125 
285049134699186 1378831532923041710 998.55115 
285049304209336 1378831533050208458 998.40125 
285049363968224 1378831533114112267 998.3413 
285049459191786 1378831533241279015 998.40125 
285049554140664 1378831533368384728 998.3713 
285049613380707 1378831533431691817 998.46124 
285049671338893 1378831533495504073 998.46124 
285049730884140 1378831533558767012 998.4313 
285049790429387 1378831533622762373 998.4313 
285049849150583 1378831533685933760 998.46124 
285049911106940 1378831533749898604 998.40125 
285049971018430 1378831533813069991 998.46124 
285050030563676 1378831533877034834 998.40125 
285050089315394 1378831533940206221 998.40125 
285050155056275 1378831534004171065 998.40125 
285050214418398 1378831534067372969 998.3713 
285050274543532 1378831534131307295 998.40125 
285050335218033 1378831534194448164 998.3713 
285050406483103 1378831534258443526 998.4313 
285050467218643 1378831534321614912 998.40125 
285050538453193 1378831534385579756 998.46124 
285050597479593 1378831534448751143 998.40125 
285050657543685 1378831534512777022 998.4313 
285050717729860 1378831534575887373 998.27136 
285050840757481 1378831534639852217 998.40125 
285050900424808 1378831534702993086 998.40125 
285050960458380 1378831534767018965 998.3413 
285051020583515 1378831534830159834 998.4313 
285051081807381 1378831534894124678 998.3413 
285051144618308 1378831534957296065 998.4313 
285051203980432 1378831535021260909 998.40125 
285051271155771 1378831535084644672 998.3413 
285051338819436 1378831535148548481 998.40125 
285051405567491 1378831535211841938 998.46124 
285051473170116 1378831535275684711 998.4912 
285051641428929 1378831535338856098 998.4912 
285051754903672 1378831535402820942 998.40125 
285051850859723 1378831535593159077 998.4313 
285051943855298 1378831535720295307 998.3413 
285052036240465 1378831535847431538 998.46124 
285052096335078 1378831535911685693 998.4313 
285052163052611 1378831535974643457 998.40125 
285052240116552 1378831536038608301 998.3413 
285052306132118 1378831536101779688 998.40125 
285052367447545 1378831536165714014 998.3413 
285052427877883 1378831536228885400 998.27136 
285052488491342 1378831536292819727 998.46124 
285052549989893 1378831536355991113 998.40125 
285052613167064 1378831536420413721 998.40125 
285052673994165 1378831536483188379 998.3713 
285052780327142 1378831536547153223 998.4313 
285052842008816 1378831536610294092 998.46124 
285052947853467 1378831536737430322 998.3713 
285053051592212 1378831536801395166 998.3713 
285053150600301 1378831536928592432 998.3413 
285053243138069 1378831537055637109 998.3713 
285053304178813 1378831537118839014 998.4313 
285053363968223 1378831537182864893 998.4313 
285053423360869 1378831537246036279 998.3413 
285053482478829 1378831537310001123 998.40125 
285053543397493 1378831537373141992 998.3713 
285053604773961 1378831537437106836 998.4313 
285053666455633 1378831537500278223 998.3713 
285053727313256 1378831537564424904 998.4313 
285053787011104 1378831537627596291 998.3713 
285053848814858 1378831537691561135 998.3413 
285053909825082 1378831537754732521 998.40125 
285053971293112 1378831537818697365 998.3713 
285054032394898 1378831537881868752 998.4313 
285054090871932 1378831537945803078 998.40125 
285054151027585 1378831538009004982 998.40125 
285054706986688 1378831538072969826 998.3713 
285054803308983 1378831538582902636 998.40125 
285054898166301 1378831538708787645 998.3713 
285054964609151 1378831538771928514 998.4313 
285055030624716 1378831538835903620 998.40125 
285055090078401 1378831538899044489 998.3413 
285055149165843 1378831538963039850 998.46124 
285055207581836 1378831539026211237 998.3113 
285055265967307 1378831539090176081 998.4313 
285055332135474 1378831539153316950 998.4313 
285055397571154 1378831539217281794 998.40125 
285055457391083 1378831539280483698 998.4313 
285055516417483 1378831539344356989 998.4313 
285055575932208 1378831539407619928 998.3713 
285055634439762 1378831539471584772 998.4313 
285055696243518 1378831539534725641 998.3713 
285055757009579 1378831539598690485 998.3113 
285055816341182 1378831539661906992 998.3413 
285055875947468 1378831539725841318 998.3113 
285055934760226 1378831539789043222 998.46124 
285055994183392 1378831539851207529 998.3713 
285056493557723 1378831539916209970 998.3713 
