#SysTm EventTmStmp Pressure
290519966775457 1378837003587295580 998.901 
290520014326197 1378837003905471850 998.801 
290520085896471 1378837003968734789 998.801 
290520128258747 1378837004032759393 998.901 
290520191558000 1378837004096052850 998.3413 
290520255925465 1378837004159926141 998.99097 
290520323650171 1378837004223097528 998.96094 
290520390764471 1378837004287062371 998.62115 
290520453575397 1378837004350264276 998.901 
290520512449194 1378837004414198602 998.83105 
290520603827189 1378837004477339471 998.901 
290520660900286 1378837004541273797 998.99097 
290520706375641 1378837004604506219 998.46124 
290520783256458 1378837004668776239 998.7411 
290520829098058 1378837004731581414 998.77106 
290520898745547 1378837004795576776 999.02094 
290520974069827 1378837004858793274 998.5312 
290521039200301 1378837004922819153 998.83105 
290521083943167 1378837004986082092 998.861 
290521150386018 1378837005050077453 998.901 
290521264410129 1378837005113218322 998.801 
290521272620109 1378837005177152649 998.71106 
290521343976739 1378837005240324035 999.02094 
290521403857709 1378837005304299144 998.5312 
290521470117438 1378837005367470531 998.5912 
290521526885330 1378837005431404857 998.801 
290521597692595 1378837005494576244 999.0809 
290521654094243 1378837005558602123 998.83105 
290521717271415 1378837005621773509 998.83105 
290521781242114 1378837005685738353 998.861 
290521859954153 1378837005748909740 998.96094 
290521908389985 1378837005812874584 998.83105 
290521972604849 1378837005877083568 998.56116 
290522036117743 1378837005940010814 998.83105 
290522098715028 1378837006003182201 998.99097 
290522163204574 1378837006067238597 998.99097 
290522227236314 1378837006130394076 998.801 
290522290566088 1378837006194389438 998.801 
290522353193892 1378837006257560824 998.801 
290522473505199 1378837006321495150 998.861 
290522486690000 1378837006384666537 998.6511 
290522544129340 1378837006448631381 998.77106 
290522607306512 1378837006511772250 998.4912 
290522675031218 1378837006575767611 999.0809 
290522737964227 1378837006638938998 998.6511 
290522799584858 1378837006702934359 998.901 
290522862884110 1378837006766075229 998.83105 
290522925633996 1378837006830009555 998.861 
290522989055329 1378837006893211459 998.77106 
290523105276907 1378837006957115268 998.901 
290523117057771 1378837007020347690 998.801 
290523180265461 1378837007084373568 998.4912 
290523247807046 1378837007147422885 998.4313 
290523310282248 1378837007211418246 998.801 
290523404071353 1378837007274650668 998.93097 
290523436819712 1378837007338554477 998.801 
290523497372132 1378837007401756381 998.83105 
290523561403872 1378837007465721225 998.901 
290523634164439 1378837007528923129 998.83105 
290523693587604 1378837007592857455 998.96094 
290523751637352 1378837007656028842 998.4912 
290523815638573 1378837007719993686 998.96094 
290523878693663 1378837007783255357 998.93097 
290523945289115 1378837007847311753 998.7411 
290524007123390 1378837007910483140 998.861 
290524075519543 1378837007974478501 998.7411 
290524133264089 1378837008037649888 998.77106 
290524202636895 1378837008101614732 998.77106 
290524286354276 1378837008164755601 998.901 
290524324260578 1378837008228689927 998.7411 
290524387437750 1378837008291952866 998.77106 
290524451347409 1378837008355856675 998.62115 
290524514524580 1378837008419028062 998.5912 
290524579532973 1378837008483084458 998.861 
290524642191296 1378837008546164292 998.71106 
290524705826274 1378837008610143792 998.77106 
290524768820322 1378837008673315179 998.77106 
290524838284689 1378837008737310540 998.861 
290524948859998 1378837008800481927 998.901 
290524959877852 1378837008864355218 998.77106 
290525025252491 1378837008927587640 998.83105 
290525087269887 1378837008991735589 998.96094 
290525150324976 1378837009054723870 999.0809 
290525214234636 1378837009118688714 998.7411 
290525277411806 1378837009181860100 998.77106 
290525343641015 1378837009245824944 998.861 
290525404864881 1378837009308996331 998.77106 
290525473474678 1378837009372991692 998.83105 
290525531799110 1378837009436102044 998.77106 
290525595678250 1378837009500097405 998.861 
290525658855421 1378837009563238274 998.96094 
290525722826121 1378837009627233636 999.02094 
290525787040984 1378837009690405022 998.901 
290525849973992 1378837009754369866 998.861 
290525913273245 1378837009817541253 998.801 
290525985698088 1378837009881506097 998.77106 
290526056444311 1378837009944708001 998.83105 
290526127617819 1378837010008611809 998.83105 
290526167446905 1378837010071813714 998.56116 
290526231417606 1378837010135778558 999.2008 
290526294838939 1378837010199194085 998.83105 
290526358534957 1378837010263096630 998.71106 
290526422078371 1378837010326329052 998.5212 
290526486903642 1378837010390263378 998.861 
290526549500927 1378837010453465283 998.861 
290526613105382 1378837010517369091 998.83105 
290526709641319 1378837010580601513 998.83105 
290526739978569 1378837010644505322 999.02094 
290526806268818 1378837010707737744 998.5912 
290526867431645 1378837010771611035 998.901 
290526930578295 1378837010834843457 999.1608 
290526996258136 1378837010898808300 998.7411 
290527090505046 1378837010961979687 998.93097 
290527126366483 1378837011025975048 998.861 
290527188872207 1378837011089161083 998.83105 
290527265569902 1378837011153095409 998.861 
290527322734559 1378837011216236278 998.801 
290527375687406 1378837011280170605 998.4912 
290527438895097 1378837011343372509 999.0809 
290527511777746 1378837011407337353 998.6511 
290527565981927 1378837011470447704 998.5912 
290527630074709 1378837011534443066 998.62115 
290527693221360 1378837011597644970 998.7411 
290527757192060 1378837011661609814 998.93097 
290527820765996 1378837011724842235 998.861 
290527885957510 1378837011788776562 998.861 
290527968759280 1378837011851886913 998.861 
290528011701446 1378837011915851757 998.4912 
290528079090427 1378837011979175732 998.71106 
290528142389678 1378837012042987987 998.83105 
290528202575854 1378837012106159374 998.46124 
290528270178478 1378837012170093700 998.96094 
290528329571123 1378837012233387157 998.83105 
290528392870375 1378837012297260448 998.801 
290528456627432 1378837012360431835 998.901 
290528519346799 1378837012422443554 998.861 
290528584385712 1378837012487537548 998.6511 
290528647623923 1378837012551532909 998.83105 
290528710373808 1378837012614734814 998.3413 
290528774344508 1378837012678699657 998.6811 
290528837613242 1378837012742144400 999.02094 
290528904300255 1378837012806078726 998.83105 
290528964913713 1378837012869372183 998.83105 
290529028792853 1378837012933214956 998.77106 
290529097127967 1378837012996416861 998.801 
290529215608053 1378837013060351187 998.96094 
290529229861066 1378837013123553091 998.93097 
290529283363278 1378837013187517935 998.6511 
290529346601490 1378837013250658804 998.801 
290529420186109 1378837013314654165 999.0509 
290529473383117 1378837013377825552 998.56116 
290529537170695 1378837013441698843 998.93097 
290529600866712 1378837013504900747 998.801 
290529665814064 1378837013568910789 998.801 
290529729937368 1378837013630830955 998.83105 
290529834835887 1378837013696047019 998.83105 
290529855101414 1378837013759248923 998.801 
290529925572954 1378837013823183250 998.93097 
290529982340846 1378837013886324119 998.6511 
290530055986504 1378837013950349998 998.62115 
290530108969872 1378837014013460349 998.71106 
290530172971092 1378837014077455710 998.7411 
290530236483988 1378837014140627097 998.801 
290530300424167 1378837014204622459 998.77106 
290530382951254 1378837014267793845 998.83105 
290530429647424 1378837014331697654 998.901 
290530494350613 1378837014394869041 998.6511 
290530554994593 1378837014458864402 998.96094 
290530617774998 1378837014522035789 998.901 
290530687300406 1378837014586031150 998.99097 
290530748798958 1378837014649233054 998.96094 
290530808863050 1378837014713167380 998.99097 
290530872803231 1378837014776338767 998.83105 
290530936651849 1378837014839723777 998.861 
290531001080355 1378837014903474998 998.801 
290531090596607 1378837014967378806 998.83105 
290531126488564 1378837015030824851 998.861 
290531190550826 1378837015094576072 999.13086 
290531253789038 1378837015157686423 998.901 
290531317454534 1378837015221863624 998.5912 
290531380540145 1378837015285065528 998.5212 
290531444419283 1378837015348969337 998.801 
290531508756229 1378837015412171241 998.71106 
290531572238603 1378837015476166602 998.801 
290531638467812 1378837015539399024 998.861 
290531753621175 1378837015603241798 998.801 
290531762197400 1378837015666413184 998.861 
290531825923937 1378837015730378028 998.6511 
290531889619955 1378837015793549415 998.7411 
290531953071809 1378837015857544776 998.62115 
290532016310021 1378837015920685645 998.6811 
290532080341762 1378837015984772559 998.901 
290532148096989 1378837016047897555 998.83105 
290532208588366 1378837016111801364 998.93097 
290532275489023 1378837016175003268 998.801 
290532335766758 1378837016238907077 998.71106 
290532397845194 1378837016302078464 998.901 
290532462975669 1378837016366104342 998.6511 
290532526122320 1378837016429275729 998.56116 
290532589330012 1378837016493271091 998.83105 
290532652110417 1378837016556411960 998.77106 
290532716386323 1378837016620376803 998.801 
290532779288809 1378837016683578708 998.801 
290532850370755 1378837016747451999 998.77106 
290532949409364 1378837016810684421 998.6811 
290532970529462 1378837016874588229 999.11084 
290533033401429 1378837016937790134 998.7411 
290533097311088 1378837017001693942 998.93097 
290533160579821 1378837017064926364 998.801 
290533226351222 1378837017128891208 998.6511 
290533288399141 1378837017192093112 998.6811 
290533376175730 1378837017256057956 998.83105 
290533419819864 1378837017319259860 998.77106 
290533522398834 1378837017383194186 998.801 
290533547242417 1378837017447006442 999.02094 
290533642557541 1378837017510299899 998.56116 
290533670514201 1378837017573501803 998.93097 
290533733080965 1378837017637405612 998.6511 
290533798577684 1378837017700819835 998.861 
290533865386779 1378837017764876232 998.7411 
290533924718382 1378837017827986583 998.7411 
290533987498789 1378837017891920910 998.801 
290534067156961 1378837017955824718 998.83105 
290534114555099 1378837018019026622 998.96094 
290534177762790 1378837018082259044 998.861 
290534244510844 1378837018146223888 998.6511 
290534307626974 1378837018209395275 998.7411 
290534370926227 1378837018273390636 998.83105 
290534433187786 1378837018336531505 998.801 
290534496181835 1378837018400496349 998.93097 
290534560579820 1378837018463667736 998.7411 
290534696212356 1378837018527616725 998.901 
290534751026944 1378837018655424342 999.2008 
290534813471626 1378837018717924342 998.56116 
290534877381285 1378837018781828151 998.77106 
290534940680537 1378837018845030055 999.13086 
290535004803840 1378837018909025416 998.62115 
290535067767368 1378837018972196803 998.83105 
290535131738068 1378837019036161647 998.801 
290535195037321 1378837019099363551 998.83105 
290535292855115 1378837019164243922 998.83105 
290535322795600 1378837019226438746 999.1608 
290535386003290 1378837019290403590 998.62115 
290535449851909 1378837019353605494 998.7411 
290535513334284 1378837019417600856 998.56116 
290535576511455 1378837019480772242 998.5212 
290535640878920 1378837019544737086 998.801 
290535703720366 1378837019607908473 998.901 
290535767904709 1378837019671873317 998.83105 
290535893679164 1378837019735044703 998.861 
290535903445683 1378837019798979030 998.801 
290535957832987 1378837019862119899 998.7411 
290536032577378 1378837019926084742 998.6511 
290536104330773 1378837019989286647 998.83105 
290536176328333 1378837020053220973 998.71106 
290536217591876 1378837020116422877 999.0809 
290536286842601 1378837020180569551 998.1214 
290536374313988 1378837020243801973 998.77106 
290536428609729 1378837020307736299 998.861 
290536476770878 1378837020370877169 998.901 
290536530822457 1378837020434842012 998.6511 
290536611304679 1378837020498043917 998.7411 
290536678724181 1378837020561947725 998.801 
290536749287281 1378837020625180147 998.4912 
290536787651391 1378837020689114473 998.7411 
290536848570053 1378837020752316378 998.71106 
290536950355495 1378837020816311739 998.901 
290536990917070 1378837020879483126 998.93097 
290537064623769 1378837020943356417 998.861 
290537103232041 1378837021006572934 999.13086 
290537176786137 1378837021070537778 998.99097 
290537229250658 1378837021133739682 998.5912 
290537293221358 1378837021197674008 998.6811 
290537356368008 1378837021260814877 998.5912 
290537420399750 1378837021324840756 998.93097 
290537483576920 1378837021388012143 998.901 
290537547822305 1378837021451946469 998.83105 
290537625557693 1378837021515148373 998.861 
290537713456365 1378837021579052182 998.801 
290537776694576 1378837021642284604 998.801 
290537819514658 1378837021706218930 998.96094 
290537896670162 1378837021769420834 998.861 
290537937994745 1378837021833324643 998.801 
290537992168405 1378837021896557065 999.13086 
290538072284382 1378837021960460873 998.62115 
290538123833291 1378837022023662778 998.901 
290538183836345 1378837022087688657 998.83105 
290538246921954 1378837022150860043 998.801 
290538311625143 1378837022214824887 998.861 
290538421132240 1378837022277996274 998.801 
290538470849926 1378837022341930600 998.62115 
290538507871137 1378837022405071469 998.4912 
290538571048307 1378837022469066830 998.62115 
290538655376096 1378837022532238217 998.6811 
290538695144141 1378837022596355649 999.0509 
290538755025112 1378837022659551484 998.801 
290538818995812 1378837022723516328 998.83105 
290538883149635 1378837022786626679 998.83105 
290538946632009 1378837022850622041 998.861 
290539009381894 1378837022913884980 998.83105 
290539073322075 1378837022977788789 998.77106 
290539141199384 1378837023040929658 998.46124 
290539200653069 1378837023104955537 998.5212 
290539263982841 1378837023168126923 998.56116 
290539327770419 1378837023232122285 998.861 
290539394579515 1378837023295293672 998.901 
290539454948810 1378837023359258515 998.77106 
290539562655205 1378837023422443569 998.77106 
290539588231277 1378837023486377895 998.861 
290539649149941 1378837023549610317 998.801 
290539709244553 1378837023613514126 998.93097 
290539772421725 1378837023676746548 998.96094 
290539836361905 1378837023740680874 998.6811 
290539900637808 1378837023804676235 999.0509 
290539964242264 1378837023867817104 998.83105 
290540026809028 1378837023930957973 998.861 
290540091634299 1378837023994983852 998.77106 
290540167263781 1378837024058155239 999.11084 
290540217622395 1378837024122028530 998.801 
290540280799567 1378837024185199917 999.0809 
290540344800787 1378837024249195278 998.6511 
290540408069520 1378837024312397182 998.5912 
290540471948658 1378837024376300991 998.5912 
290540535095308 1378837024439472378 998.801 
290540599096529 1378837024503467739 998.861 
290540664654289 1378837024566669643 998.901 
290540776175730 1378837024630573452 998.901 
290540789543653 1378837024693744839 998.83105 
290540853727997 1378837024757740200 998.77106 
290540952827645 1378837024820911587 998.901 
290540994396392 1378837024884845913 999.02094 
290541070727843 1378837024948017299 998.801 
290541111197857 1378837025012012661 998.6811 
290541179655052 1378837025075365830 998.83105 
290541250553877 1378837025139361191 998.83105 
290541329357479 1378837025202776719 998.77106 
290541378464757 1378837025266497422 998.77106 
290541434103397 1378837025329638291 998.801 
290541499294912 1378837025393572617 998.5212 
290541563143532 1378837025456774521 998.5212 
290541626046018 1378837025520739365 998.71106 
290541688368618 1378837025583910752 999.02094 
290541777457585 1378837025647997666 998.71106 
290541833309866 1378837025711108017 998.83105 
290541872650627 1378837025775011826 998.801 
290541939429202 1378837025838183213 998.901 
290542037674281 1378837025902101690 998.77106 
290542076160470 1378837025965303594 998.93097 
290542154475744 1378837026029237920 999.0509 
290542197204267 1378837026092409307 998.71106 
290542276618275 1378837026156435186 998.62115 
290542323161843 1378837026219576055 998.6511 
290542402758974 1378837026283510381 998.7411 
290542446464147 1378837026346773321 998.861 
290542527221053 1378837026410738165 998.861 
290542573001611 1378837026473848516 998.83105 
290542635446294 1378837026537843877 998.861 
290542737384336 1378837026601045782 998.83105 
290542760579819 1378837026664949590 998.62115 
290542823787511 1378837026728151495 998.77106 
290542918095461 1378837026792085821 998.77106 
290542958016108 1378837026855226690 999.02094 
290543023360225 1378837026919313604 998.4313 
290543090779727 1378837026982454473 998.83105 
290543144190380 1378837027046419317 998.83105 
290543206665581 1378837027109590704 998.801 
290543319529918 1378837027173555547 998.861 
290543333477729 1378837027236665899 999.0809 
290543416279498 1378837027300600225 998.71106 
290543459526867 1378837027363863165 998.56116 
290543543061125 1378837027427828008 998.6811 
290543588658562 1378837027490938360 998.861 
290543673077913 1378837027555176603 998.801 
290543750996422 1378837027618347989 998.861 
290543803735626 1378837027682282315 998.901 
290543856993675 1378837027745484220 998.83105 
290543929204876 1378837027809418546 998.83105 
290543973917223 1378837027872589933 998.93097 
290544048997338 1378837027936585294 998.71106 
290544130791936 1378837027999787198 998.6511 
290544159542126 1378837028063721524 998.93097 
290544226870068 1378837028126923429 998.801 
290544286689999 1378837028190918790 998.83105 
290544350111332 1378837028254090177 998.901 
290544454887769 1378837028318055021 998.861 
290544513608966 1378837028381302053 998.901 
290544554903029 1378837028445205862 999.0809 
