#SysTm EventTmStmp Pressure
498971327964443 1379826134471445247 996.0925 
498971349939111 1379826135679605647 996.06256 
498971396146954 1379826135742777034 996.1825 
498971459171523 1379826135806741878 996.15247 
498971518869372 1379826135869974300 996.06256 
498971582656949 1379826135934059932 996.06256 
498971651419349 1379826135997261837 996.00256 
498971708156720 1379826136061226680 996.0326 
498971772188463 1379826136124398067 996.15247 
498971838692353 1379826136188423946 996.06256 
498971899122692 1379826136251503780 996.1225 
498971964100564 1379826136315499141 996.0925 
498972025446511 1379826136378670528 996.15247 
498972092591331 1379826136442604854 996.0925 
498972152655424 1379826136505806759 996.1225 
498972216717685 1379826136569954708 996.06256 
498972289478253 1379826136633797481 996.00256 
498972387082404 1379826136697701290 996.0925 
498972455020752 1379826136760977050 996.1825 
498972476537615 1379826136823263427 996.1825 
498972535319853 1379826136888021728 996.1225 
498972602098427 1379826136953848144 996.0925 
498972668205554 1379826137015218994 996.00256 
498972727903401 1379826137079153320 996.0925 
498972789981840 1379826137142324706 996.06256 
498972854898671 1379826137206045410 996.0925 
498972917312833 1379826137269521972 996.00256 
498972983419959 1379826137335439941 996.1225 
498973045071111 1379826137396597167 996.0326 
498973120853195 1379826137461477539 996.06256 
498973191782541 1379826137524526855 995.9726 
498973235396153 1379826137587728759 996.06256 
498973302479931 1379826137651052734 996.0326 
498973361811535 1379826137714742919 996.06256 
498973427033571 1379826137779257080 996.0925 
498973491736760 1379826137842001220 996.1225 
498973553235310 1379826137905081054 996.0326 
498973621875628 1379826137969137451 996.0326 
498973680902028 1379826138031454345 996.0326 
498973764436287 1379826138096487304 996.06256 
498973824286738 1379826138159597656 996.06256 
498973886945061 1379826138223654052 996.06256 
498973953479473 1379826138288015624 995.9426 
498974015893636 1379826138354386408 996.0326 
498974069273766 1379826138413956720 996.06256 
498974124942926 1379826138477799494 996.06256 
498974195567066 1379826138540970880 996.06256 
498974263566456 1379826138605240900 996.0326 
498974317434915 1379826138668076593 996.0925 
498974383206316 1379826138732163507 996.06256 
498974442446359 1379826138795456964 996.0925 
498974506661222 1379826138857712824 996.0925 
498974569685791 1379826138922379572 996.0326 
498974638112467 1379826138988419611 996.0925 
498974714413397 1379826139049637873 996.0326 
498974768587058 1379826139113083918 995.9726 
498974841133983 1379826139176725675 996.06256 
498974890210741 1379826139240446378 996.0925 
498974960193956 1379826139303831388 996.00256 
498975018823590 1379826139369718839 996.06256 
498975081054630 1379826139431150724 996.06256 
498975145513656 1379826139495939542 996.06256 
498975210583089 1379826139558195402 995.9726 
498975274462230 1379826139622190763 996.0326 
498975336296504 1379826139685301114 996.0326 
498975397154126 1379826139749357511 996.1225 
498975475103158 1379826139813810636 996.06256 
498975544384402 1379826139876493741 996.0925 
498975605333586 1379826139939665128 996.0925 
498975661277428 1379826140003538419 996.0326 
498975714199754 1379826140065885831 996.0925 
498975777743169 1379826140130644132 996.0326 
498975844613305 1379826140195768644 996.0326 
498975905959254 1379826140257414152 996.0925 
498975966694794 1379826140318968107 996.0925 
498976030940178 1379826140384062101 996.0925 
498976094178391 1379826140447264005 996.0925 
498976158088050 1379826140511259366 996.0925 
498976221295741 1379826140574400236 996.06256 
498976285724246 1379826140638395597 995.9626 
498976349084539 1379826140701566984 996.0326 
498976412536395 1379826140765740087 996.0326 
498976476964900 1379826140828941992 996.0925 
498976539745306 1379826140892906835 996.0326 
498976610369448 1379826140956047705 996.06256 
498976667320462 1379826141020012548 996.06256 
498976730070348 1379826141083183935 996.0326 
498976795383944 1379826141147179296 996.0925 
498976857065616 1379826141210289648 996.0925 
498976920853195 1379826141274132421 996.06256 
498976984244008 1379826141337456396 996.1225 
498977048123148 1379826141401421240 996.06256 
498977111452920 1379826141464592626 996.06256 
498977176705476 1379826141528496435 996.06256 
498977238448191 1379826141591682410 995.99255 
498977303303981 1379826141655708289 996.0925 
498977366053866 1379826141718849158 995.9626 
498977433351287 1379826141782875037 995.99255 
498977500251945 1379826141845985389 996.06256 
498977566847397 1379826141909950233 995.99255 
498977622058750 1379826141973152137 995.9626 
498977685205400 1379826142037116981 996.0326 
498977748687774 1379826142100227332 996.06256 
498977822913322 1379826142164253211 996.1225 
498977882916373 1379826142227363563 995.99255 
498977946795512 1379826142291328406 995.99255 
498978004875779 1379826142354530311 996.0226 
498978065214556 1379826142418403602 995.9626 
498978128849533 1379826142482002234 996.0925 
498978192911795 1379826142545967078 996.1225 
498978255753241 1379826142608802772 996.06256 
498978319601859 1379826142672676063 995.99255 
498978382931633 1379826142735939002 996.06256 
498978446719210 1379826142799812293 996.0226 
498978518167402 1379826142863166785 995.9126 
498978573867082 1379826142926979041 996.0226 
498978637044254 1379826142990150428 996.06256 
498978701045474 1379826143054115272 996.0226 
498978764314205 1379826143117286658 995.99255 
498978828193345 1379826143181312537 996.1225 
498978891309474 1379826143244665778 995.9626 
498978956745153 1379826143308661139 996.06256 
498979018487865 1379826143371802008 996.06256 
498979082489086 1379826143435766852 996.0925 
498979147283838 1379826143499151862 996.0226 
498979209575917 1379826143562903082 996.0226 
498979272753089 1379826143626074469 996.0925 
498979336723789 1379826143690008795 996.0925 
498979399961999 1379826143753180182 996.1225 
498979464359986 1379826143817267096 996.0226 
498979527872880 1379826143881018317 996.0226 
498979591355255 1379826143944372809 996.05255 
498979655783761 1379826144007544196 996.1225 
498979727689757 1379826144071432164 996.0226 
498979785647946 1379826144134817174 996.1225 
498979845956201 1379826144198873571 996.0226 
498979908553485 1379826144261739782 996.05255 
498979972768348 1379826144325704625 996.1225 
498980038905996 1379826144388876012 996.1225 
498980102785135 1379826144452810338 996.05255 
498980163093390 1379826144516042760 996.0226 
498980232099952 1379826144579977086 996.05255 
498980291370515 1379826144643270543 996.0226 
498980354944451 1379826144707113317 996.05255 
498980428681670 1379826144770345739 995.99255 
498980493232259 1379826144834249547 996.05255 
498980550885242 1379826144897390416 996.05255 
498980613848769 1379826144961385778 995.9626 
498980672417365 1379826145024557164 995.99255 
498980736418585 1379826145089498571 995.9626 
498980798680143 1379826145151723912 996.05255 
498980866038605 1379826145215658239 995.99255 
498980925736455 1379826145278829625 996.0825 
498980989859756 1379826145342947057 996.0825 
498981053128489 1379826145406026891 996.05255 
498981116916067 1379826145469961217 995.99255 
498981191141613 1379826145533102086 996.0825 
498981244277581 1379826145597066930 996.1825 
498981307180068 1379826145660207799 996.0226 
498981371211809 1379826145724504495 996.0226 
498981434450021 1379826145787645364 996.0825 
498981499122689 1379826145851610208 996.0825 
498981561597892 1379826145914781595 996.05255 
498981627918660 1379826145978807474 996.05255 
498981689356171 1379826146041978860 996.0226 
498981761994656 1379826146105943704 995.99255 
498981818304745 1379826146169084573 995.99255 
498981887677550 1379826146233049417 996.0825 
498981942980464 1379826146296220804 996.0226 
498982006920644 1379826146360185647 996.0825 
498982072447884 1379826146425615335 996.11255 
498982135625055 1379826146487730870 996.11255 
498982198435981 1379826146551268468 996.05255 
498982263383334 1379826146616240391 995.9326 
498982325065006 1379826146678404698 995.9626 
498982390775367 1379826146743162999 996.0825 
498982452487560 1379826146805571446 995.99255 
498982517038147 1379826146869627843 996.05255 
498982582717990 1379826146932677159 996.11255 
498982643484050 1379826146995756993 996.0226 
498982709224932 1379826147059904942 996.05255 
498982775850906 1379826147123320470 996.0226 
498982834755224 1379826147187071690 996.0825 
498982902296808 1379826147251189122 996.11255 
498982966725313 1379826147314116368 996.0825 
498983027796579 1379826147378233800 995.9326 
498983088898365 1379826147441344151 996.05255 
498983152991146 1379826147505247960 995.9326 
498983219739201 1379826147568968663 995.99255 
498983282763770 1379826147633879552 996.05255 
498983344384401 1379826147695525059 995.99255 
498983407500532 1379826147759642491 995.99255 
498983468724398 1379826147821257481 996.0825 
498983534037995 1379826147886626134 996.0825 
498983599168469 1379826147951720128 996.0825 
498983661246908 1379826148013701329 996.0226 
498983723844190 1379826148076872716 996.05255 
498983787784371 1379826148141045443 996.0226 
498983852121316 1379826148203972689 995.9626 
498983917526474 1379826148268242709 996.05255 
498983981832899 1379826148334160677 995.99255 
498984045132151 1379826148395043246 996.0226 
498984112551653 1379826148459923617 995.99255 
498984170540360 1379826148522515170 996.0825 
498984233229206 1379826148585808627 996.0825 
498984309408055 1379826148649620882 996.1425 
498984360163434 1379826148712731234 996.0226 
498984428284904 1379826148777733675 996.0226 
498984489966577 1379826148839867464 996.0825 
498984556378908 1379826148903936336 996.0825 
498984657798104 1379826148967077205 996.05255 
498984678063632 1379826149030157039 995.9326 
498984743010984 1379826149094121883 996.1425 
498984806096594 1379826149157659480 995.9626 
498984874920035 1379826149221868465 995.99255 
498984932847701 1379826149285589168 995.9626 
498984997062564 1379826149348546932 996.0226 
498985060117654 1379826149412633846 995.99255 
498985123050661 1379826149475622127 996.0226 
498985187051882 1379826149539648006 995.9326 
498985252060275 1379826149603551814 996.05255 
498985316153057 1379826149668249080 995.99255 
498985377346404 1379826149729894588 996.11255 
498985441347624 1379826149793889949 996.05255 
498985503029297 1379826149855596492 996.0226 
498985568495495 1379826149921056697 995.99255 
498985633564929 1379826149986120174 996.0825 
498985699092169 1379826150048192928 996.0226 
498985759797189 1379826150111364314 996.0226 
498985825538072 1379826150178472469 996.0226 
498985884961236 1379826150236516902 995.9626 
498985948413090 1379826150301549861 996.0226 
498986011773383 1379826150364751766 995.9626 
498986076537613 1379826150428686092 995.9626 
498986139714785 1379826150491918514 995.9126 
498986203380280 1379826150556095653 995.9626 
498986266099647 1379826150619267040 995.9626 
498986330131387 1379826150683262401 996.05255 
498986393278037 1379826150746403271 995.9626 
498986457248737 1379826150810368114 996.0226 
498986520792155 1379826150873539501 996.11255 
498986584884936 1379826150937534862 996.05255 
498986647573780 1379826151000675732 996.0825 
498986711513960 1379826151064640575 996.0825 
498986775271017 1379826151127811962 996.05255 
498986865763923 1379826151192265087 995.99255 
498986901747441 1379826151254978710 996.05255 
498986965626580 1379826151318882519 995.99255 
498987028834271 1379826151382099002 996.0226 
498987104891039 1379826151446155398 995.99255 
498987181069890 1379826151509265750 995.99255 
498987220502210 1379826151573169559 995.9626 
498987288471078 1379826151636371463 996.05255 
498987347131234 1379826151700336307 995.99255 
498987420227526 1379826151763507693 996.05255 
498987493720583 1379826151827472537 996.05255 
498987537486798 1379826151890674441 996.11255 
498987601426977 1379826151954608768 995.99255 
498987664604147 1379826152017780154 995.99255 
498987739867387 1379826152081744998 996.05255 
498987808263540 1379826152145130008 995.99255 
498987887799630 1379826152209400027 995.99255 
498987943987635 1379826152272510379 995.9126 
498988007683653 1379826152336505740 995.99255 
498988069243245 1379826152399585574 995.9626 
498988130894397 1379826152463672488 996.05255 
498988201976343 1379826152526752322 995.9626 
498988262833967 1379826152590808719 996.05255 
498988323783151 1379826152653949588 996.0226 
498988389798716 1379826152717944949 995.99255 
498988449496565 1379826152781024783 995.9626 
498988513802990 1379826152845355838 995.9626 
498988578414618 1379826152908191531 995.99255 
498988643880817 1379826152972247928 995.9326 
498988706111855 1379826153035504909 996.0226 
498988768770180 1379826153099591823 996.05255 
498988861430030 1379826153162641140 995.99255 
498988887219744 1379826153226209255 996.0825 
498988948229968 1379826153289350124 996.05255 
498989012841595 1379826153353772731 995.9326 
498989136540666 1379826153416486354 995.9326 
498989144048677 1379826153480451198 995.9326 
498989190409122 1379826153543683620 996.05255 
498989254349304 1379826153607587429 995.99255 
498989325522812 1379826153670758815 996.05255 
498989405486187 1379826153734754177 995.9326 
498989471440712 1379826153798336267 995.99255 
498989530467113 1379826153862423181 995.9626 
498989593033876 1379826153925441980 995.9326 
498989660117654 1379826153989498376 996.11255 
498989727964440 1379826154052578210 995.99255 
498989788059054 1379826154116665124 995.99255 
498989850564777 1379826154179775476 995.9626 
498989913864029 1379826154243770837 995.99255 
498989979177625 1379826154306881189 995.99255 
498990079894854 1379826154370907068 995.99255 
498990086670377 1379826154433590173 995.9626 
498990144567523 1379826154497555017 995.99255 
498990212688995 1379826154560787439 995.99255 
498990278521437 1379826154624691247 995.9626 
498990345116890 1379826154688289880 995.99255 
498990409514875 1379826154752346277 996.05255 
498990489661373 1379826154815426111 996.05255 
498990549847547 1379826154879482507 996.05255 
498990608934989 1379826154942592859 995.99255 
498990674370666 1379826155006618738 995.99255 
498990747253316 1379826155069698572 995.99255 
498990804997860 1379826155133785486 996.0226 
498990867930867 1379826155196834802 996.0226 
498990962544022 1379826155260921716 995.99255 
498990972371582 1379826155323513269 996.11255 
498991033748052 1379826155386471033 996.0226 
498991098909047 1379826155451620889 996.05255 
498991163551195 1379826155515646768 995.99255 
498991225568591 1379826155578696084 996.11255 
498991293659543 1379826155642844033 995.99255 
498991357935446 1379826155707144570 996.05255 
498991424836103 1379826155769980264 996.05255 
498991516855025 1379826155833121133 995.99255 
498991585495342 1379826155897116494 996.05255 
498991606401797 1379826155959097695 995.9626 
498991671471231 1379826156024161172 995.99255 
498991736388062 1379826156089255166 996.11255 
498991798039215 1379826156151266885 995.99255 
498991861582630 1379826156214908337 996.0226 
498991925217606 1379826156278415417 996.0226 
498992042934682 1379826156341647839 996.05255 
498992057004574 1379826156405612683 995.8826 
498992116305658 1379826156468723035 995.99255 
498992180703644 1379826156532748913 995.9326 
498992248825114 1379826156595889783 995.9626 
498992307241107 1379826156659854626 996.05255 
498992370570881 1379826156723117566 995.9626 
498992432801919 1379826156785434460 996.05255 
498992497718751 1379826156850223279 996.0226 
498992563795358 1379826156915469861 996.0226 
498992634755223 1379826156977390027 995.99255 
498992688623680 1379826157041202283 996.05255 
498992751892412 1379826157104495740 995.99255 
498992816656642 1379826157168094372 996.0226 
498992879101323 1379826157231631970 996.0226 
498992946154582 1379826157297549939 996.05255 
498993007042726 1379826157358676648 996.05255 
498993072142679 1379826157423495984 995.99255 
498993140599874 1379826157485812878 996.11255 
498993202098425 1379826157549930310 996.0226 
498993294422551 1379826157613040662 996.0226 
498993323874711 1379826157676883435 995.99255 
498993389157786 1379826157741306042 996.05255 
498993451816111 1379826157804080701 996.1425 
498993514718599 1379826157867429132 996.0226 
498993578811380 1379826157931455011 996.05255 
498993643087285 1379826157993741388 996.11255 
498993706417057 1379826158058560724 996.05255 
498993771059206 1379826158123746270 995.9626 
498993833351286 1379826158185178155 995.99255 
498993897566148 1379826158249509210 996.05255 
498993960254994 1379826158312863702 996.0226 
498994023523725 1379826158376157159 995.99255 
498994087280783 1379826158439938897 995.99255 
498994150824199 1379826158503140802 995.99255 
498994227430333 1379826158567929620 995.9626 
498994294239429 1379826158632669840 995.99255 
498994358667935 1379826158695719157 995.9626 
498994420227525 1379826158758249674 996.0226 
498994483191054 1379826158820108805 996.0226 
498994541698607 1379826158884684000 995.9326 
498994606890123 1379826158950663004 995.9626 
498994691828319 1379826159011331950 996.0825 
498994722623374 1379826159075663004 995.99255 
498994784274528 1379826159136911784 995.9326 
498994848458870 1379826159201670084 996.0825 
498994913619865 1379826159265146647 995.99255 
498994999870437 1379826159329569254 996.0825 
498995063658015 1379826159392862711 995.9626 
498995128086522 1379826159456736002 995.9626 
498995168495494 1379826159519632731 996.0226 
498995230238209 1379826159583383952 996.0226 
498995297535629 1379826159646555338 996.11255 
498995364955131 1379826159710550700 996.05255 
498995447207534 1379826159773844157 996.0226 
498995508553483 1379826159838114176 996.0226 
498995572188459 1379826159901163493 996.0226 
498995633473367 1379826159965311442 995.9326 
498995718625207 1379826160028391276 996.05255 
498995738829693 1379826160091959391 995.9326 
498995801945822 1379826160155069743 995.99255 
498995865947044 1379826160219272805 995.99255 
498995974599568 1379826160282840920 995.9626 
498995993094914 1379826160346409035 995.9326 
498996056363646 1379826160409610940 996.0226 
498996120273305 1379826160473545266 995.99255 
498996192606590 1379826160536777688 996.0226 
498996258561114 1379826160600681496 995.99255 
498996331932088 1379826160664310647 996.0226 
498996399321069 1379826160728336526 995.9326 
498996462864485 1379826160791416360 995.9626 
498996525919576 1379826160855442238 995.99255 
498996589066226 1379826160918522072 995.99255 
498996649649164 1379826160982608987 995.9326 
498996731535323 1379826161045826019 995.9326 
498996756165263 1379826161109424651 995.9326 
498996819189832 1379826161172535003 996.05255 
498996883130012 1379826161236499847 995.9626 
498996952746982 1379826161299640716 995.9326 
498997038783911 1379826161363758147 996.0226 
498997092469246 1379826161427234710 995.99255 
498997172829388 1379826161491301345 996.0226 
498997202006864 1379826161553953933 995.99255 
498997264634667 1379826161617979812 996.05255 
498997327781317 1379826161681120681 996.0825 
498997418091100 1379826161745085525 995.99255 
498997491614677 1379826161808684158 996.0226 
498997554395083 1379826161872252273 996.0825 
498997593766363 1379826161935362625 995.99255 
498997688745761 1379826161999327468 995.99255 
498997713589344 1379826162062529373 995.9626 
498997776369750 1379826162126494216 996.11255 
498997846200361 1379826162189696121 996.05255 
498997925553329 1379826162253722000 996.0825 
498997988883103 1379826162318159197 996.0825 
498998048794593 1379826162381300066 996.05255 
498998113589345 1379826162444410418 996.0825 
498998180703643 1379826162508466814 995.9326 
498998260636499 1379826162571516131 996.0226 
498998281787117 1379826162635114763 996.05255 
498998344964287 1379826162698286150 996.05255 
498998408934987 1379826162762250994 995.9626 
498998474828471 1379826162825361345 995.99255 
